# OpenSignals Text File Format
# {"00:07:80:64:6D:DA": {"sensor": ["CUSTOM/0.5/1.0/V", "CUSTOM/0.5/1.0/V", "CUSTOM/0.5/1.0/V", "CUSTOM/0.5/1.0/V"], "device name": "Plataforma", "column": ["nSeq", "DI", "CH1", "CH2", "CH3", "CH4"], "sync interval": 2, "time": "9:54:50.806", "comments": "", "device connection": "BTH00:07:80:64:6D:DA", "channels": [1, 2, 3, 4], "date": "2017-6-9", "mode": 0, "digital IO": [0, 1], "firmware version": 772, "device": "biosignalsplux", "position": 0, "sampling rate": 1000, "label": ["CH1", "CH2", "CH3", "CH4"], "resolution": [16, 16, 16, 16], "special": [{}, {}, {}, {}]}, "00:07:80:3B:46:38": {"sensor": ["CUSTOM/0.5/1.0/V", "CUSTOM/0.5/1.0/V", "CUSTOM/0.5/1.0/V", "CUSTOM/0.5/1.0/V", "CUSTOM/0.5/1.0/V", "CUSTOM/0.5/1.0/V", "CUSTOM/0.5/1.0/V", "CUSTOM/0.5/1.0/V"], "device name": "EMGs", "column": ["nSeq", "DI", "RA_L", "RA_R", "OE_L", "OE:R", "IL_L", "IL_R", "MF_L", "MF_R"], "sync interval": 2, "time": "9:54:50.806", "comments": "", "device connection": "BTH00:07:80:3B:46:38", "channels": [1, 2, 3, 4, 5, 6, 7, 8], "date": "2017-6-9", "mode": 0, "digital IO": [0, 1], "firmware version": 772, "device": "biosignalsplux", "position": 1, "sampling rate": 1000, "label": ["RA_L", "RA_R", "OE_L", "OE:R", "IL_L", "IL_R", "MF_L", "MF_R"], "resolution": [16, 16, 16, 16, 16, 16, 16, 16], "special": [{}, {}, {}, {}, {}, {}, {}, {}]}}
# EndOfHeader
1027	0	126	1202	29	2005	0	0	0	0	0	0	0	0	0	0	
1028	0	100	1223	27	1990	1	0	0	0	0	0	0	0	0	0	
1029	0	106	1213	30	1985	2	0	0	0	0	0	0	0	0	0	
1030	0	70	1223	29	1968	3	0	0	0	0	0	0	0	0	0	
1031	0	103	1206	29	1957	4	0	0	0	0	0	0	0	0	0	
1032	0	105	1193	31	1958	5	0	0	0	0	0	0	0	0	0	
1033	0	101	1272	28	1989	6	0	0	0	0	0	0	0	0	0	
1034	0	132	1226	30	1980	7	0	0	0	0	0	0	0	0	0	
1035	0	116	1235	30	1973	8	0	0	0	0	0	0	0	0	0	
1036	0	88	1228	30	1983	9	0	0	0	0	0	0	0	0	0	
1037	0	74	1265	29	1958	10	0	0	0	0	0	0	0	0	0	
1038	0	119	1277	27	2012	11	0	0	0	0	0	0	0	0	0	
1039	0	128	1172	30	1985	12	0	0	0	0	0	0	0	0	0	
1040	0	130	1252	28	1968	13	0	0	0	0	0	0	0	0	0	
1041	0	144	1242	29	2018	14	0	0	0	0	0	0	0	0	0	
1042	0	118	1259	30	1989	15	0	0	0	0	0	0	0	0	0	
1043	0	122	1268	30	1948	16	0	0	0	0	0	0	0	0	0	
1044	0	141	1232	30	1954	17	0	0	0	0	0	0	0	0	0	
1045	0	122	1252	30	2037	18	0	0	0	0	0	0	0	0	0	
1046	0	128	1213	28	1968	19	0	0	0	0	0	0	0	0	0	
1047	0	109	1253	29	2008	20	0	0	0	0	0	0	0	0	0	
1048	0	110	1248	28	1987	21	0	0	0	0	0	0	0	0	0	
1049	0	147	1211	29	1980	22	0	0	0	0	0	0	0	0	0	
1050	0	104	1192	29	1984	23	0	0	0	0	0	0	0	0	0	
1051	0	82	1231	28	1998	24	0	0	0	0	0	0	0	0	0	
1052	0	136	1227	30	1997	25	0	0	0	0	0	0	0	0	0	
1053	0	129	1301	28	2043	26	0	0	0	0	0	0	0	0	0	
1054	0	89	1235	29	2004	27	0	0	0	0	0	0	0	0	0	
1055	0	98	1214	29	2033	28	0	0	0	0	0	0	0	0	0	
1056	0	119	1219	28	1957	29	0	0	0	0	0	0	0	0	0	
1057	0	101	1220	29	1984	30	0	0	0	0	0	0	0	0	0	
1058	0	140	1208	29	1997	31	0	0	0	0	0	0	0	0	0	
1059	0	155	1186	28	1965	32	0	0	0	0	0	0	0	0	0	
1060	0	112	1261	29	2000	33	0	0	0	0	0	0	0	0	0	
1061	0	113	1236	28	1970	34	0	0	0	0	0	0	0	0	0	
1062	0	137	1216	31	1981	35	0	0	0	0	0	0	0	0	0	
1063	0	93	1222	28	1995	36	0	0	0	0	0	0	0	0	0	
1064	0	130	1218	29	2014	37	0	0	0	0	0	0	0	0	0	
1065	0	100	1226	29	2000	38	0	0	0	0	0	0	0	0	0	
1066	0	113	1233	29	1968	39	0	0	0	0	0	0	0	0	0	
1067	0	115	1242	30	1971	40	0	0	0	0	0	0	0	0	0	
1068	0	123	1224	28	1992	41	0	0	0	0	0	0	0	0	0	
1069	0	133	1266	28	1998	42	0	0	0	0	0	0	0	0	0	
1070	0	105	1258	29	1975	43	0	0	0	0	0	0	0	0	0	
1071	0	118	1259	29	1977	44	0	0	0	0	0	0	0	0	0	
1072	0	94	1225	28	2000	45	0	0	0	0	0	0	0	0	0	
1073	0	150	1209	27	1944	46	0	0	0	0	0	0	0	0	0	
1074	0	119	1246	29	1992	47	0	0	0	0	0	0	0	0	0	
1075	0	157	1252	28	1988	48	0	0	0	0	0	0	0	0	0	
1076	0	91	1213	30	2014	49	0	0	0	0	0	0	0	0	0	
1077	0	131	1226	29	2041	50	0	0	0	0	0	0	0	0	0	
1078	0	100	1212	29	1963	51	0	0	0	0	0	0	0	0	0	
1079	0	87	1212	27	2000	52	0	0	0	0	0	0	0	0	0	
1080	0	128	1231	30	2002	53	0	0	0	0	0	0	0	0	0	
1081	0	120	1225	27	2020	54	0	0	0	0	0	0	0	0	0	
1082	0	102	1245	29	1971	55	0	0	0	0	0	0	0	0	0	
1083	0	158	1257	29	1968	56	0	0	0	0	0	0	0	0	0	
1084	0	114	1200	28	1963	57	0	0	0	0	0	0	0	0	0	
1085	0	120	1197	28	1995	58	0	0	0	0	0	0	0	0	0	
1086	0	81	1225	28	2019	59	0	0	0	0	0	0	0	0	0	
1087	0	141	1193	29	2007	60	0	0	0	0	0	0	0	0	0	
1088	0	129	1236	28	1961	61	0	0	0	0	0	0	0	0	0	
1089	0	95	1252	29	1988	62	0	0	0	0	0	0	0	0	0	
1090	0	146	1265	28	2000	63	0	0	0	0	0	0	0	0	0	
1091	0	77	1211	29	1945	64	0	0	0	0	0	0	0	0	0	
1092	0	118	1211	29	2000	65	0	0	0	0	0	0	0	0	0	
1093	0	109	1253	29	1985	66	0	0	0	0	0	0	0	0	0	
1094	0	66	1274	28	1973	67	0	0	0	0	0	0	0	0	0	
1095	0	150	1237	29	1954	68	0	0	0	0	0	0	0	0	0	
1096	0	104	1228	29	1982	69	0	0	0	0	0	0	0	0	0	
1097	0	86	1193	29	1972	70	0	0	0	0	0	0	0	0	0	
1098	0	143	1230	28	2010	71	0	0	0	0	0	0	0	0	0	
1099	0	112	1236	30	2028	72	0	0	0	0	0	0	0	0	0	
1100	0	90	1217	29	1967	73	0	0	0	0	0	0	0	0	0	
1101	0	100	1259	29	1945	74	0	0	0	0	0	0	0	0	0	
1102	0	133	1233	30	1940	75	0	0	0	0	0	0	0	0	0	
1103	0	99	1242	28	1945	76	0	0	0	0	0	0	0	0	0	
1104	0	153	1204	29	1984	77	0	0	0	0	0	0	0	0	0	
1105	0	108	1243	29	1975	78	0	0	0	0	0	0	0	0	0	
1106	0	103	1222	30	1986	79	0	0	0	0	0	0	0	0	0	
1107	0	126	1263	28	1976	80	0	0	0	0	0	0	0	0	0	
1108	0	119	1229	29	1961	81	0	0	0	0	0	0	0	0	0	
1109	0	102	1242	29	1982	82	0	0	0	0	0	0	0	0	0	
1110	0	123	1222	29	1972	83	0	0	0	0	0	0	0	0	0	
1111	0	111	1188	29	1988	84	0	0	0	0	0	0	0	0	0	
1112	0	126	1213	29	1995	85	0	0	0	0	0	0	0	0	0	
1113	0	128	1226	29	1977	86	0	0	0	0	0	0	0	0	0	
1114	0	102	1230	30	1998	87	0	0	0	0	0	0	0	0	0	
1115	0	99	1212	30	2004	88	0	0	0	0	0	0	0	0	0	
1116	0	135	1196	30	1981	89	0	0	0	0	0	0	0	0	0	
1117	0	115	1264	27	1940	90	0	0	0	0	0	0	0	0	0	
1118	0	147	1261	30	1980	91	0	0	0	0	0	0	0	0	0	
1119	0	166	1212	28	1985	92	0	0	0	0	0	0	0	0	0	
1120	0	118	1231	30	1964	93	0	0	0	0	0	0	0	0	0	
1121	0	82	1240	30	2005	94	0	0	0	0	0	0	0	0	0	
1122	0	97	1237	28	1993	95	0	0	0	0	0	0	0	0	0	
1123	0	77	1226	30	1996	96	0	0	0	0	0	0	0	0	0	
1124	0	140	1234	27	1992	97	0	0	0	0	0	0	0	0	0	
1125	0	106	1256	29	1957	98	0	0	0	0	0	0	0	0	0	
1126	0	159	1220	28	2000	99	0	0	0	0	0	0	0	0	0	
1127	0	164	1208	29	1945	100	0	0	0	0	0	0	0	0	0	
1128	0	118	1245	29	1946	101	0	0	0	0	0	0	0	0	0	
1129	0	109	1237	28	2021	102	0	0	0	0	0	0	0	0	0	
1130	0	101	1193	29	2001	103	0	0	0	0	0	0	0	0	0	
1131	0	122	1188	29	1970	104	0	0	0	0	0	0	0	0	0	
1132	0	84	1209	29	1963	105	0	0	0	0	0	0	0	0	0	
1133	0	82	1246	28	1986	106	0	0	0	0	0	0	0	0	0	
1134	0	152	1259	29	1984	107	0	0	0	0	0	0	0	0	0	
1135	0	79	1219	30	1978	108	0	0	0	0	0	0	0	0	0	
1136	0	115	1223	29	1956	109	0	0	0	0	0	0	0	0	0	
1137	0	130	1197	29	1971	110	0	0	0	0	0	0	0	0	0	
1138	0	81	1202	29	1976	111	0	0	0	0	0	0	0	0	0	
1139	0	99	1216	29	2018	112	0	0	0	0	0	0	0	0	0	
1140	0	128	1250	30	1988	113	0	0	0	0	0	0	0	0	0	
1141	0	124	1271	28	1961	114	0	0	0	0	0	0	0	0	0	
1142	0	108	1204	28	1990	115	0	0	0	0	0	0	0	0	0	
1143	0	140	1241	29	1995	116	0	0	0	0	0	0	0	0	0	
1144	0	84	1260	28	1975	117	0	0	0	0	0	0	0	0	0	
1145	0	126	1238	29	1955	118	0	0	0	0	0	0	0	0	0	
1146	0	88	1230	31	2010	119	0	0	0	0	0	0	0	0	0	
1147	0	127	1216	28	1951	120	0	0	0	0	0	0	0	0	0	
1148	0	164	1224	29	2009	121	0	0	0	0	0	0	0	0	0	
1149	0	84	1207	30	1990	122	0	0	0	0	0	0	0	0	0	
1150	0	115	1226	29	1972	123	0	0	0	0	0	0	0	0	0	
1151	0	106	1246	29	1988	124	0	0	0	0	0	0	0	0	0	
1152	0	98	1246	30	1981	125	0	0	0	0	0	0	0	0	0	
1153	0	130	1231	29	1952	126	0	0	0	0	0	0	0	0	0	
1154	0	133	1198	29	1953	127	0	0	0	0	0	0	0	0	0	
1155	0	119	1199	29	1992	128	0	0	0	0	0	0	0	0	0	
1156	0	148	1234	28	2002	129	0	0	0	0	0	0	0	0	0	
1157	0	122	1220	29	2020	130	0	0	0	0	0	0	0	0	0	
1158	0	146	1250	29	2007	131	0	0	0	0	0	0	0	0	0	
1159	0	84	1236	28	1989	132	0	0	0	0	0	0	0	0	0	
1160	0	102	1250	28	2012	133	0	0	0	0	0	0	0	0	0	
1161	0	94	1237	29	1956	134	0	0	0	0	0	0	0	0	0	
1162	0	128	1207	29	1992	135	0	0	0	0	0	0	0	0	0	
1163	0	119	1212	29	1980	136	0	0	0	0	0	0	0	0	0	
1164	0	147	1266	30	1962	137	0	0	0	0	0	0	0	0	0	
1165	0	114	1220	29	1953	138	0	0	0	0	0	0	0	0	0	
1166	0	163	1227	29	2000	139	0	0	0	0	0	0	0	0	0	
1167	0	92	1248	29	1972	140	0	0	0	0	0	0	0	0	0	
1168	0	95	1184	30	1969	141	0	0	0	0	0	0	0	0	0	
1169	0	90	1205	28	1982	142	0	0	0	0	0	0	0	0	0	
1170	0	148	1189	28	1980	143	0	0	0	0	0	0	0	0	0	
1171	0	135	1214	29	1977	144	0	0	0	0	0	0	0	0	0	
1172	0	146	1187	28	2022	145	0	0	0	0	0	0	0	0	0	
1173	0	125	1241	29	1972	146	0	0	0	0	0	0	0	0	0	
1174	0	131	1246	29	1952	147	0	0	0	0	0	0	0	0	0	
1175	0	93	1211	28	1990	148	0	0	0	0	0	0	0	0	0	
1176	0	100	1206	29	1946	149	0	0	0	0	0	0	0	0	0	
1177	0	138	1249	29	1990	150	0	0	0	0	0	0	0	0	0	
1178	0	72	1237	28	2010	151	0	0	0	0	0	0	0	0	0	
1179	0	81	1236	29	1992	152	0	0	0	0	0	0	0	0	0	
1180	0	150	1250	29	2065	153	0	0	0	0	0	0	0	0	0	
1181	0	118	1231	29	1972	154	0	0	0	0	0	0	0	0	0	
1182	0	92	1234	28	1984	155	0	0	0	0	0	0	0	0	0	
1183	0	129	1234	29	1977	156	0	0	0	0	0	0	0	0	0	
1184	0	102	1306	30	1965	157	0	0	0	0	0	0	0	0	0	
1185	0	125	1236	28	1946	158	0	0	0	0	0	0	0	0	0	
1186	0	132	1244	28	1956	159	0	0	0	0	0	0	0	0	0	
1187	0	105	1260	28	1934	160	0	0	0	0	0	0	0	0	0	
1188	0	119	1219	28	2001	161	0	0	0	0	0	0	0	0	0	
1189	0	80	1206	29	1983	162	0	0	0	0	0	0	0	0	0	
1190	0	81	1220	29	1954	163	0	0	0	0	0	0	0	0	0	
1191	0	81	1254	30	2002	164	0	0	0	0	0	0	0	0	0	
1192	0	124	1247	28	1952	165	0	0	0	0	0	0	0	0	0	
1193	0	133	1258	30	1956	166	0	0	0	0	0	0	0	0	0	
1194	0	90	1198	29	1960	167	0	0	0	0	0	0	0	0	0	
1195	0	97	1261	30	1956	168	0	0	0	0	0	0	0	0	0	
1196	0	75	1187	29	1965	169	0	0	0	0	0	0	0	0	0	
1197	0	89	1219	29	2031	170	0	0	0	0	0	0	0	0	0	
1198	0	140	1200	29	1969	171	0	0	0	0	0	0	0	0	0	
1199	0	67	1236	30	1992	172	0	0	0	0	0	0	0	0	0	
1200	0	131	1184	29	1964	173	0	0	0	0	0	0	0	0	0	
1201	0	91	1242	30	1968	174	0	0	0	0	0	0	0	0	0	
1202	0	108	1253	29	2000	175	0	0	0	0	0	0	0	0	0	
1203	0	118	1211	29	1994	176	0	0	0	0	0	0	0	0	0	
1204	0	106	1240	29	1991	177	0	0	0	0	0	0	0	0	0	
1205	0	84	1202	28	1967	178	0	0	0	0	0	0	0	0	0	
1206	0	122	1265	31	1974	179	0	0	0	0	0	0	0	0	0	
1207	0	100	1218	29	1961	180	0	0	0	0	0	0	0	0	0	
1208	0	96	1227	30	1958	181	0	0	0	0	0	0	0	0	0	
1209	0	100	1208	28	1996	182	0	0	0	0	0	0	0	0	0	
1210	0	117	1206	28	1965	183	0	0	0	0	0	0	0	0	0	
1211	0	86	1275	29	1996	184	0	0	0	0	0	0	0	0	0	
1212	0	108	1207	29	1971	185	0	0	0	0	0	0	0	0	0	
1213	0	101	1218	28	2007	186	0	0	0	0	0	0	0	0	0	
1214	0	119	1213	28	1991	187	0	0	0	0	0	0	0	0	0	
1215	0	130	1197	29	2037	188	0	0	0	0	0	0	0	0	0	
1216	0	127	1254	29	1983	189	0	0	0	0	0	0	0	0	0	
1217	0	112	1224	29	2006	190	0	0	0	0	0	0	0	0	0	
1218	0	128	1258	30	1991	191	0	0	0	0	0	0	0	0	0	
1219	0	124	1244	30	2003	192	0	0	0	0	0	0	0	0	0	
1220	0	131	1223	29	1985	193	0	0	0	0	0	0	0	0	0	
1221	0	96	1239	29	1977	194	0	0	0	0	0	0	0	0	0	
1222	0	142	1226	29	1991	195	0	0	0	0	0	0	0	0	0	
1223	0	92	1225	30	1959	196	0	0	0	0	0	0	0	0	0	
1224	0	133	1206	29	1965	197	0	0	0	0	0	0	0	0	0	
1225	0	107	1269	29	1969	198	0	0	0	0	0	0	0	0	0	
1226	0	103	1202	28	1976	199	0	0	0	0	0	0	0	0	0	
1227	0	101	1210	28	2001	200	0	0	0	0	0	0	0	0	0	
1228	0	107	1228	29	1973	201	0	0	0	0	0	0	0	0	0	
1229	0	133	1250	30	1956	202	0	0	0	0	0	0	0	0	0	
1230	0	165	1239	28	2000	203	0	0	0	0	0	0	0	0	0	
1231	0	104	1243	28	1964	204	0	0	0	0	0	0	0	0	0	
1232	0	153	1252	29	1965	205	0	0	0	0	0	0	0	0	0	
1233	0	116	1220	28	1988	206	0	0	0	0	0	0	0	0	0	
1234	0	112	1253	30	2009	207	0	0	0	0	0	0	0	0	0	
1235	0	143	1204	29	1978	208	0	0	0	0	0	0	0	0	0	
1236	0	165	1200	29	1988	209	0	0	0	0	0	0	0	0	0	
1237	0	105	1264	30	1955	210	0	0	0	0	0	0	0	0	0	
1238	0	132	1177	29	1977	211	0	0	0	0	0	0	0	0	0	
1239	0	127	1240	29	1957	212	0	0	0	0	0	0	0	0	0	
1240	0	107	1222	30	1971	213	0	0	0	0	0	0	0	0	0	
1241	0	99	1217	30	2007	214	0	0	0	0	0	0	0	0	0	
1242	0	141	1215	30	1994	215	0	0	0	0	0	0	0	0	0	
1243	0	113	1207	29	1989	216	0	0	0	0	0	0	0	0	0	
1244	0	173	1217	29	1990	217	0	0	0	0	0	0	0	0	0	
1245	0	137	1223	28	1978	218	0	0	0	0	0	0	0	0	0	
1246	0	129	1225	29	1994	219	0	0	0	0	0	0	0	0	0	
1247	0	138	1232	30	1970	220	0	0	0	0	0	0	0	0	0	
1248	0	115	1218	29	2013	221	0	0	0	0	0	0	0	0	0	
1249	0	140	1212	29	1989	222	0	0	0	0	0	0	0	0	0	
1250	0	131	1226	29	1992	223	0	0	0	0	0	0	0	0	0	
1251	0	74	1250	29	1988	224	0	0	0	0	0	0	0	0	0	
1252	0	116	1222	29	1991	225	0	0	0	0	0	0	0	0	0	
1253	0	110	1200	29	2010	226	0	0	0	0	0	0	0	0	0	
1254	0	96	1244	29	1935	227	0	0	0	0	0	0	0	0	0	
1255	0	65	1203	30	1989	228	0	0	0	0	0	0	0	0	0	
1256	0	133	1251	28	2004	229	0	0	0	0	0	0	0	0	0	
1257	0	134	1189	29	1988	230	0	0	0	0	0	0	0	0	0	
1258	0	106	1231	28	2009	231	0	0	0	0	0	0	0	0	0	
1259	0	126	1240	29	1983	232	0	0	0	0	0	0	0	0	0	
1260	0	132	1253	29	1962	233	0	0	0	0	0	0	0	0	0	
1261	0	130	1256	30	1983	234	0	0	0	0	0	0	0	0	0	
1262	0	157	1243	27	1993	235	0	0	0	0	0	0	0	0	0	
1263	0	86	1217	29	1970	236	0	0	0	0	0	0	0	0	0	
1264	0	99	1177	30	1965	237	0	0	0	0	0	0	0	0	0	
1265	0	102	1235	29	2000	238	0	0	0	0	0	0	0	0	0	
1266	0	99	1226	29	1968	239	0	0	0	0	0	0	0	0	0	
1267	0	71	1256	29	1973	240	0	0	0	0	0	0	0	0	0	
1268	0	107	1208	29	1978	241	0	0	0	0	0	0	0	0	0	
1269	0	60	1205	29	1984	242	0	0	0	0	0	0	0	0	0	
1270	0	111	1236	29	2003	243	0	0	0	0	0	0	0	0	0	
1271	0	136	1273	28	1984	244	0	0	0	0	0	0	0	0	0	
1272	0	91	1276	28	1990	245	0	0	0	0	0	0	0	0	0	
1273	0	116	1207	30	1997	246	0	0	0	0	0	0	0	0	0	
1274	0	136	1223	29	1956	247	0	0	0	0	0	0	0	0	0	
1275	0	146	1214	30	1988	248	0	0	0	0	0	0	0	0	0	
1276	0	100	1149	28	1988	249	0	0	0	0	0	0	0	0	0	
1277	0	132	1227	29	1993	250	0	0	0	0	0	0	0	0	0	
1278	0	162	1237	28	1941	251	0	0	0	0	0	0	0	0	0	
1279	0	96	1273	30	1997	252	0	0	0	0	0	0	0	0	0	
1280	0	99	1224	29	1979	253	0	0	0	0	0	0	0	0	0	
1281	0	77	1268	29	1933	254	0	0	0	0	0	0	0	0	0	
1282	0	69	1220	28	1987	255	0	0	0	0	0	0	0	0	0	
1283	0	104	1210	29	2010	256	0	0	0	0	0	0	0	0	0	
1284	0	141	1221	29	1984	257	0	0	0	0	0	0	0	0	0	
1285	0	114	1201	29	2008	258	0	0	0	0	0	0	0	0	0	
1286	0	81	1222	30	2014	259	0	0	0	0	0	0	0	0	0	
1287	0	97	1233	29	1984	260	0	0	0	0	0	0	0	0	0	
1288	0	113	1251	28	1978	261	0	0	0	0	0	0	0	0	0	
1289	0	127	1215	29	1956	262	0	0	0	0	0	0	0	0	0	
1290	0	126	1257	29	1987	263	0	0	0	0	0	0	0	0	0	
1291	0	146	1199	29	1987	264	0	0	0	0	0	0	0	0	0	
1292	0	118	1202	28	1993	265	0	0	0	0	0	0	0	0	0	
1293	0	125	1281	28	1993	266	0	0	0	0	0	0	0	0	0	
1294	0	164	1191	29	1930	267	0	0	0	0	0	0	0	0	0	
1295	0	113	1252	28	1928	268	0	0	0	0	0	0	0	0	0	
1296	0	144	1232	28	1996	269	0	0	0	0	0	0	0	0	0	
1297	0	92	1268	30	2009	270	0	0	0	0	0	0	0	0	0	
1298	0	100	1219	28	1995	271	0	0	0	0	0	0	0	0	0	
1299	0	91	1281	29	1995	272	0	0	0	0	0	0	0	0	0	
1300	0	110	1196	30	2012	273	0	0	0	0	0	0	0	0	0	
1301	0	144	1201	30	2002	274	0	0	0	0	0	0	0	0	0	
1302	0	128	1245	30	1985	275	0	0	0	0	0	0	0	0	0	
1303	0	136	1252	28	1965	276	0	0	0	0	0	0	0	0	0	
1304	0	112	1220	29	2011	277	0	0	0	0	0	0	0	0	0	
1305	0	106	1227	30	1988	278	0	0	0	0	0	0	0	0	0	
1306	0	98	1195	29	1975	279	0	0	0	0	0	0	0	0	0	
1307	0	126	1244	29	1958	280	0	0	0	0	0	0	0	0	0	
1308	0	130	1229	29	1961	281	0	0	0	0	0	0	0	0	0	
1309	0	121	1206	29	2004	282	0	0	0	0	0	0	0	0	0	
1310	0	63	1247	29	2000	283	0	0	0	0	0	0	0	0	0	
1311	0	74	1272	28	1977	284	0	0	0	0	0	0	0	0	0	
1312	0	135	1203	30	1989	285	0	0	0	0	0	0	0	0	0	
1313	0	136	1245	28	1983	286	0	0	0	0	0	0	0	0	0	
1314	0	107	1203	30	1933	287	0	0	0	0	0	0	0	0	0	
1315	0	141	1222	28	1965	288	0	0	0	0	0	0	0	0	0	
1316	0	124	1242	29	1959	289	0	0	0	0	0	0	0	0	0	
1317	0	90	1269	30	1997	290	0	0	0	0	0	0	0	0	0	
1318	0	128	1246	28	1955	291	0	0	0	0	0	0	0	0	0	
1319	0	85	1283	30	2029	292	0	0	0	0	0	0	0	0	0	
1320	0	101	1260	28	2026	293	0	0	0	0	0	0	0	0	0	
1321	0	93	1204	29	1952	294	0	0	0	0	0	0	0	0	0	
1322	0	147	1192	28	1969	295	0	0	0	0	0	0	0	0	0	
1323	0	135	1279	29	2024	296	0	0	0	0	0	0	0	0	0	
1324	0	92	1235	29	1989	297	0	0	0	0	0	0	0	0	0	
1325	0	125	1256	29	2006	298	0	0	0	0	0	0	0	0	0	
1326	0	125	1226	29	1995	299	0	0	0	0	0	0	0	0	0	
1327	0	143	1234	28	1960	300	0	0	0	0	0	0	0	0	0	
1328	0	97	1208	28	1966	301	0	0	0	0	0	0	0	0	0	
1329	0	131	1232	29	1982	302	0	0	0	0	0	0	0	0	0	
1330	0	122	1230	28	2009	303	0	0	0	0	0	0	0	0	0	
1331	0	85	1232	28	1956	304	0	0	0	0	0	0	0	0	0	
1332	0	110	1229	29	1967	305	0	0	0	0	0	0	0	0	0	
1333	0	126	1256	29	1953	306	0	0	0	0	0	0	0	0	0	
1334	0	108	1227	30	1939	307	0	0	0	0	0	0	0	0	0	
1335	0	128	1243	29	1990	308	0	0	0	0	0	0	0	0	0	
1336	0	108	1252	29	1966	309	0	0	0	0	0	0	0	0	0	
1337	0	101	1256	28	2016	310	0	0	0	0	0	0	0	0	0	
1338	0	116	1230	30	1983	311	0	0	0	0	0	0	0	0	0	
1339	0	137	1240	29	1993	312	0	0	0	0	0	0	0	0	0	
1340	0	109	1244	29	1970	313	0	0	0	0	0	0	0	0	0	
1341	0	92	1190	29	1976	314	0	0	0	0	0	0	0	0	0	
1342	0	108	1256	29	1972	315	0	0	0	0	0	0	0	0	0	
1343	0	122	1200	30	2020	316	0	0	0	0	0	0	0	0	0	
1344	0	135	1214	29	2025	317	0	0	0	0	0	0	0	0	0	
1345	0	134	1238	29	1952	318	0	0	0	0	0	0	0	0	0	
1346	0	125	1270	29	1973	319	0	0	0	0	0	0	0	0	0	
1347	0	116	1245	28	1939	320	0	0	0	0	0	0	0	0	0	
1348	0	114	1261	29	1990	321	0	0	0	0	0	0	0	0	0	
1349	0	141	1199	29	1982	322	0	0	0	0	0	0	0	0	0	
1350	0	88	1212	28	1932	323	0	0	0	0	0	0	0	0	0	
1351	0	97	1255	30	1971	324	0	0	0	0	0	0	0	0	0	
1352	0	123	1192	29	1986	325	0	0	0	0	0	0	0	0	0	
1353	0	97	1254	29	1981	326	0	0	0	0	0	0	0	0	0	
1354	0	145	1246	31	1978	327	0	0	0	0	0	0	0	0	0	
1355	0	103	1259	30	1982	328	0	0	0	0	0	0	0	0	0	
1356	0	85	1248	29	2052	329	0	0	0	0	0	0	0	0	0	
1357	0	99	1257	29	1970	330	0	0	0	0	0	0	0	0	0	
1358	0	132	1250	29	1979	331	0	0	0	0	0	0	0	0	0	
1359	0	140	1237	31	1947	332	0	0	0	0	0	0	0	0	0	
1360	0	141	1239	28	1980	333	0	0	0	0	0	0	0	0	0	
1361	0	110	1203	29	2006	334	0	0	0	0	0	0	0	0	0	
1362	0	144	1280	29	1965	335	0	0	0	0	0	0	0	0	0	
1363	0	138	1206	29	1981	336	0	0	0	0	0	0	0	0	0	
1364	0	117	1237	28	1979	337	0	0	0	0	0	0	0	0	0	
1365	0	92	1224	30	1988	338	0	0	0	0	0	0	0	0	0	
1366	0	115	1253	28	1993	339	0	0	0	0	0	0	0	0	0	
1367	0	98	1229	29	1956	340	0	0	0	0	0	0	0	0	0	
1368	0	94	1234	28	1941	341	0	0	0	0	0	0	0	0	0	
1369	0	152	1200	28	1930	342	0	0	0	0	0	0	0	0	0	
1370	0	119	1242	28	2032	343	0	0	0	0	0	0	0	0	0	
1371	0	152	1202	29	1962	344	0	0	0	0	0	0	0	0	0	
1372	0	100	1257	29	1985	345	0	0	0	0	0	0	0	0	0	
1373	0	135	1217	29	2008	346	0	0	0	0	0	0	0	0	0	
1374	0	114	1271	29	2019	347	0	0	0	0	0	0	0	0	0	
1375	0	84	1206	31	1953	348	0	0	0	0	0	0	0	0	0	
1376	0	110	1204	28	1980	349	0	0	0	0	0	0	0	0	0	
1377	0	97	1220	29	1998	350	0	0	0	0	0	0	0	0	0	
1378	0	100	1236	29	1990	351	0	0	0	0	0	0	0	0	0	
1379	0	126	1268	30	1954	352	0	0	0	0	0	0	0	0	0	
1380	0	106	1252	29	1971	353	0	0	0	0	0	0	0	0	0	
1381	0	69	1223	29	1973	354	0	0	0	0	0	0	0	0	0	
1382	0	125	1218	29	2020	355	0	0	0	0	0	0	0	0	0	
1383	0	103	1214	29	1961	356	0	0	0	0	0	0	0	0	0	
1384	0	145	1255	29	1979	357	0	0	0	0	0	0	0	0	0	
1385	0	143	1271	29	1954	358	0	0	0	0	0	0	0	0	0	
1386	0	101	1232	29	1961	359	0	0	0	0	0	0	0	0	0	
1387	0	141	1236	28	1957	360	0	0	0	0	0	0	0	0	0	
1388	0	76	1223	28	1986	361	0	0	0	0	0	0	0	0	0	
1389	0	115	1214	29	2046	362	0	0	0	0	0	0	0	0	0	
1390	0	106	1207	29	1999	363	0	0	0	0	0	0	0	0	0	
1391	0	128	1231	28	1938	364	0	0	0	0	0	0	0	0	0	
1392	0	98	1250	29	1959	365	0	0	0	0	0	0	0	0	0	
1393	0	120	1244	30	1968	366	0	0	0	0	0	0	0	0	0	
1394	0	91	1233	29	1958	367	0	0	0	0	0	0	0	0	0	
1395	0	78	1210	29	2010	368	0	0	0	0	0	0	0	0	0	
1396	0	135	1219	30	1987	369	0	0	0	0	0	0	0	0	0	
1397	0	110	1287	29	1970	370	0	0	0	0	0	0	0	0	0	
1398	0	104	1185	29	1992	371	0	0	0	0	0	0	0	0	0	
1399	0	76	1268	29	1972	372	0	0	0	0	0	0	0	0	0	
1400	0	96	1209	29	1992	373	0	0	0	0	0	0	0	0	0	
1401	0	128	1200	29	1976	374	0	0	0	0	0	0	0	0	0	
1402	0	108	1265	28	1958	375	0	0	0	0	0	0	0	0	0	
1403	0	106	1221	30	1948	376	0	0	0	0	0	0	0	0	0	
1404	0	132	1238	29	1995	377	0	0	0	0	0	0	0	0	0	
1405	0	95	1237	29	1952	378	0	0	0	0	0	0	0	0	0	
1406	0	128	1242	30	1987	379	0	0	0	0	0	0	0	0	0	
1407	0	119	1199	29	1958	380	0	0	0	0	0	0	0	0	0	
1408	0	131	1259	29	1987	381	0	0	0	0	0	0	0	0	0	
1409	0	158	1220	29	1979	382	0	0	0	0	0	0	0	0	0	
1410	0	131	1206	30	1978	383	0	0	0	0	0	0	0	0	0	
1411	0	121	1252	29	2002	384	0	0	0	0	0	0	0	0	0	
1412	0	85	1230	29	1963	385	0	0	0	0	0	0	0	0	0	
1413	0	91	1236	29	1997	386	0	0	0	0	0	0	0	0	0	
1414	0	153	1229	30	1980	387	0	0	0	0	0	0	0	0	0	
1415	0	128	1232	29	1988	388	0	0	0	0	0	0	0	0	0	
1416	0	108	1212	29	1979	389	0	0	0	0	0	0	0	0	0	
1417	0	131	1216	28	1990	390	0	0	0	0	0	0	0	0	0	
1418	0	121	1264	29	1995	391	0	0	0	0	0	0	0	0	0	
1419	0	101	1221	29	1979	392	0	0	0	0	0	0	0	0	0	
1420	0	126	1264	29	1937	393	0	0	0	0	0	0	0	0	0	
1421	0	91	1221	30	1982	394	0	0	0	0	0	0	0	0	0	
1422	0	117	1220	29	1974	395	0	0	0	0	0	0	0	0	0	
1423	0	120	1234	29	1967	396	0	0	0	0	0	0	0	0	0	
1424	0	171	1256	28	1961	397	0	0	0	0	0	0	0	0	0	
1425	0	110	1237	28	1936	398	0	0	0	0	0	0	0	0	0	
1426	0	103	1233	29	1963	399	0	0	0	0	0	0	0	0	0	
1427	0	105	1263	28	1972	400	0	0	0	0	0	0	0	0	0	
1428	0	100	1270	28	2008	401	0	0	0	0	0	0	0	0	0	
1429	0	109	1240	30	2022	402	0	0	0	0	0	0	0	0	0	
1430	0	112	1204	29	1970	403	0	0	0	0	0	0	0	0	0	
1431	0	141	1283	29	1956	404	0	0	0	0	0	0	0	0	0	
1432	0	144	1257	29	1995	405	0	0	0	0	0	0	0	0	0	
1433	0	100	1215	29	2007	406	0	0	0	0	0	0	0	0	0	
1434	0	155	1223	28	2015	407	0	0	0	0	0	0	0	0	0	
1435	0	142	1248	29	1954	408	0	0	0	0	0	0	0	0	0	
1436	0	85	1203	29	2013	409	0	0	0	0	0	0	0	0	0	
1437	0	131	1216	28	1973	410	0	0	0	0	0	0	0	0	0	
1438	0	121	1232	28	1940	411	0	0	0	0	0	0	0	0	0	
1439	0	57	1243	30	1986	412	0	0	0	0	0	0	0	0	0	
1440	0	132	1257	29	1991	413	0	0	0	0	0	0	0	0	0	
1441	0	97	1177	30	1967	414	0	0	0	0	0	0	0	0	0	
1442	0	92	1223	30	1944	415	0	0	0	0	0	0	0	0	0	
1443	0	142	1253	30	1971	416	0	0	0	0	0	0	0	0	0	
1444	0	113	1231	28	1955	417	0	0	0	0	0	0	0	0	0	
1445	0	87	1264	30	2002	418	0	0	0	0	0	0	0	0	0	
1446	0	104	1259	29	1978	419	0	0	0	0	0	0	0	0	0	
1447	0	149	1267	29	1962	420	0	0	0	0	0	0	0	0	0	
1448	0	94	1215	29	1930	421	0	0	0	0	0	0	0	0	0	
1449	0	103	1243	30	1999	422	0	0	0	0	0	0	0	0	0	
1450	0	99	1265	29	2013	423	0	0	0	0	0	0	0	0	0	
1451	0	156	1215	29	1972	424	0	0	0	0	0	0	0	0	0	
1452	0	115	1207	30	2015	425	0	0	0	0	0	0	0	0	0	
1453	0	115	1252	29	1961	426	0	0	0	0	0	0	0	0	0	
1454	0	114	1216	30	2004	427	0	0	0	0	0	0	0	0	0	
1455	0	127	1213	29	1981	428	0	0	0	0	0	0	0	0	0	
1456	0	104	1197	29	1974	429	0	0	0	0	0	0	0	0	0	
1457	0	74	1231	30	1994	430	0	0	0	0	0	0	0	0	0	
1458	0	118	1205	30	1997	431	0	0	0	0	0	0	0	0	0	
1459	0	85	1315	28	2007	432	0	0	0	0	0	0	0	0	0	
1460	0	130	1228	29	2010	433	0	0	0	0	0	0	0	0	0	
1461	0	131	1216	29	1987	434	0	0	0	0	0	0	0	0	0	
1462	0	141	1197	29	1960	435	0	0	0	0	0	0	0	0	0	
1463	0	74	1226	28	1993	436	0	0	0	0	0	0	0	0	0	
1464	0	98	1251	30	1956	437	0	0	0	0	0	0	0	0	0	
1465	0	82	1231	28	2027	438	0	0	0	0	0	0	0	0	0	
1466	0	128	1225	29	1980	439	0	0	0	0	0	0	0	0	0	
1467	0	88	1234	27	1955	440	0	0	0	0	0	0	0	0	0	
1468	0	154	1212	30	2011	441	0	0	0	0	0	0	0	0	0	
1469	0	132	1245	30	1968	442	0	0	0	0	0	0	0	0	0	
1470	0	107	1289	28	2043	443	0	0	0	0	0	0	0	0	0	
1471	0	141	1243	29	1964	444	0	0	0	0	0	0	0	0	0	
1472	0	115	1215	29	1980	445	0	0	0	0	0	0	0	0	0	
1473	0	116	1187	28	2029	446	0	0	0	0	0	0	0	0	0	
1474	0	135	1212	29	1966	447	0	0	0	0	0	0	0	0	0	
1475	0	118	1242	29	1997	448	0	0	0	0	0	0	0	0	0	
1476	0	128	1200	29	1942	449	0	0	0	0	0	0	0	0	0	
1477	0	129	1232	29	2013	450	0	0	0	0	0	0	0	0	0	
1478	0	125	1235	28	1965	451	0	0	0	0	0	0	0	0	0	
1479	0	88	1242	29	2010	452	0	0	0	0	0	0	0	0	0	
1480	0	100	1231	29	1966	453	0	0	0	0	0	0	0	0	0	
1481	0	152	1233	29	1951	454	0	0	0	0	0	0	0	0	0	
1482	0	111	1208	29	1942	455	0	0	0	0	0	0	0	0	0	
1483	0	137	1271	29	1978	456	0	0	0	0	0	0	0	0	0	
1484	0	139	1255	29	1984	457	0	0	0	0	0	0	0	0	0	
1485	0	140	1232	30	1957	458	0	0	0	0	0	0	0	0	0	
1486	0	113	1230	28	1972	459	0	0	0	0	0	0	0	0	0	
1487	0	152	1241	29	1964	460	0	0	0	0	0	0	0	0	0	
1488	0	108	1231	28	1974	461	0	0	0	0	0	0	0	0	0	
1489	0	122	1224	30	1950	462	0	0	0	0	0	0	0	0	0	
1490	0	108	1187	29	1982	463	0	0	0	0	0	0	0	0	0	
1491	0	101	1210	29	1993	464	0	0	0	0	0	0	0	0	0	
1492	0	116	1264	28	1981	465	0	0	0	0	0	0	0	0	0	
1493	0	151	1233	29	1950	466	0	0	0	0	0	0	0	0	0	
1494	0	85	1206	30	1936	467	0	0	0	0	0	0	0	0	0	
1495	0	116	1194	28	1996	468	0	0	0	0	0	0	0	0	0	
1496	0	132	1252	28	2003	469	0	0	0	0	0	0	0	0	0	
1497	0	123	1214	29	2011	470	0	0	0	0	0	0	0	0	0	
1498	0	93	1220	28	2023	471	0	0	0	0	0	0	0	0	0	
1499	0	137	1256	29	1965	472	0	0	0	0	0	0	0	0	0	
1500	0	125	1261	30	1957	473	0	0	0	0	0	0	0	0	0	
1501	0	153	1244	29	1988	474	0	0	0	0	0	0	0	0	0	
1502	0	99	1243	31	1966	475	0	0	0	0	0	0	0	0	0	
1503	0	118	1212	29	1961	476	0	0	0	0	0	0	0	0	0	
1504	0	131	1212	28	1957	477	0	0	0	0	0	0	0	0	0	
1505	0	131	1259	28	1962	478	0	0	0	0	0	0	0	0	0	
1506	0	79	1213	29	2011	479	0	0	0	0	0	0	0	0	0	
1507	0	124	1248	29	1930	480	0	0	0	0	0	0	0	0	0	
1508	0	94	1215	29	1945	481	0	0	0	0	0	0	0	0	0	
1509	0	115	1260	27	1973	482	0	0	0	0	0	0	0	0	0	
1510	0	100	1228	28	1940	483	0	0	0	0	0	0	0	0	0	
1511	0	113	1225	29	1963	484	0	0	0	0	0	0	0	0	0	
1512	0	93	1249	30	2012	485	0	0	0	0	0	0	0	0	0	
1513	0	88	1207	30	1988	486	0	0	0	0	0	0	0	0	0	
1514	0	136	1220	30	1965	487	0	0	0	0	0	0	0	0	0	
1515	0	93	1191	28	2000	488	0	0	0	0	0	0	0	0	0	
1516	0	95	1252	29	2011	489	0	0	0	0	0	0	0	0	0	
1517	0	91	1225	29	1992	490	0	0	0	0	0	0	0	0	0	
1518	0	105	1257	29	1976	491	0	0	0	0	0	0	0	0	0	
1519	0	123	1220	30	1992	492	0	0	0	0	0	0	0	0	0	
1520	0	144	1239	28	1992	493	0	0	0	0	0	0	0	0	0	
1521	0	94	1233	28	1980	494	0	0	0	0	0	0	0	0	0	
1522	0	105	1206	30	1942	495	0	0	0	0	0	0	0	0	0	
1523	0	86	1259	28	1983	496	0	0	0	0	0	0	0	0	0	
1524	0	122	1210	29	1986	497	0	0	0	0	0	0	0	0	0	
1525	0	89	1216	29	2013	498	0	0	0	0	0	0	0	0	0	
1526	0	138	1249	28	1971	499	0	0	0	0	0	0	0	0	0	
1527	0	73	1231	30	2006	500	0	0	0	0	0	0	0	0	0	
1528	0	90	1226	29	1999	501	0	0	0	0	0	0	0	0	0	
1529	0	137	1199	29	1984	502	0	0	0	0	0	0	0	0	0	
1530	0	91	1267	29	2005	503	0	0	0	0	0	0	0	0	0	
1531	0	135	1291	27	2034	504	0	0	0	0	0	0	0	0	0	
1532	0	113	1221	29	1999	505	0	0	0	0	0	0	0	0	0	
1533	0	99	1234	29	1980	506	0	0	0	0	0	0	0	0	0	
1534	0	104	1214	29	1982	507	0	0	0	0	0	0	0	0	0	
1535	0	127	1238	28	1952	508	0	0	0	0	0	0	0	0	0	
1536	0	113	1217	30	1952	509	0	0	0	0	0	0	0	0	0	
1537	0	95	1193	28	2004	510	0	0	0	0	0	0	0	0	0	
1538	0	101	1197	28	2014	511	0	0	0	0	0	0	0	0	0	
1539	0	93	1216	30	1970	512	0	0	0	0	0	0	0	0	0	
1540	0	140	1221	29	1981	513	0	0	0	0	0	0	0	0	0	
1541	0	71	1227	27	1989	514	0	0	0	0	0	0	0	0	0	
1542	0	106	1222	28	1997	515	0	0	0	0	0	0	0	0	0	
1543	0	104	1234	29	2014	516	0	0	0	0	0	0	0	0	0	
1544	0	116	1252	30	1986	517	0	0	0	0	0	0	0	0	0	
1545	0	135	1249	29	1996	518	0	0	0	0	0	0	0	0	0	
1546	0	81	1236	29	1980	519	0	0	0	0	0	0	0	0	0	
1547	0	115	1268	30	1988	520	0	0	0	0	0	0	0	0	0	
1548	0	118	1232	30	1974	521	0	0	0	0	0	0	0	0	0	
1549	0	100	1216	29	1955	522	0	0	0	0	0	0	0	0	0	
1550	0	130	1269	29	1985	523	0	0	0	0	0	0	0	0	0	
1551	0	104	1173	29	2011	524	0	0	0	0	0	0	0	0	0	
1552	0	100	1250	29	2018	525	0	0	0	0	0	0	0	0	0	
1553	0	132	1241	30	2007	526	0	0	0	0	0	0	0	0	0	
1554	0	105	1219	29	1963	527	0	0	0	0	0	0	0	0	0	
1555	0	96	1237	28	2004	528	0	0	0	0	0	0	0	0	0	
1556	0	100	1215	29	1972	529	0	0	0	0	0	0	0	0	0	
1557	0	127	1205	30	1992	530	0	0	0	0	0	0	0	0	0	
1558	0	123	1202	29	1972	531	0	0	0	0	0	0	0	0	0	
1559	0	105	1237	30	2014	532	0	0	0	0	0	0	0	0	0	
1560	0	138	1212	28	1995	533	0	0	0	0	0	0	0	0	0	
1561	0	123	1221	28	1985	534	0	0	0	0	0	0	0	0	0	
1562	0	135	1196	29	2018	535	0	0	0	0	0	0	0	0	0	
1563	0	102	1258	29	1988	536	0	0	0	0	0	0	0	0	0	
1564	0	124	1228	29	2020	537	0	0	0	0	0	0	0	0	0	
1565	0	118	1223	28	1955	538	0	0	0	0	0	0	0	0	0	
1566	0	128	1239	29	1952	539	0	0	0	0	0	0	0	0	0	
1567	0	129	1238	28	1942	540	0	0	0	0	0	0	0	0	0	
1568	0	130	1244	30	1998	541	0	0	0	0	0	0	0	0	0	
1569	0	63	1203	29	1973	542	0	0	0	0	0	0	0	0	0	
1570	0	122	1251	29	1990	543	0	0	0	0	0	0	0	0	0	
1571	0	149	1220	30	1976	544	0	0	0	0	0	0	0	0	0	
1572	0	143	1228	28	2009	545	0	0	0	0	0	0	0	0	0	
1573	0	132	1256	29	1978	546	0	0	0	0	0	0	0	0	0	
1574	0	111	1216	27	1972	547	0	0	0	0	0	0	0	0	0	
1575	0	128	1258	29	1961	548	0	0	0	0	0	0	0	0	0	
1576	0	110	1260	27	1993	549	0	0	0	0	0	0	0	0	0	
1577	0	90	1260	28	1977	550	0	0	0	0	0	0	0	0	0	
1578	0	112	1252	30	2004	551	0	0	0	0	0	0	0	0	0	
1579	0	117	1244	29	1966	552	0	0	0	0	0	0	0	0	0	
1580	0	86	1221	30	1982	553	0	0	0	0	0	0	0	0	0	
1581	0	111	1228	29	1961	554	0	0	0	0	0	0	0	0	0	
1582	0	102	1208	29	1966	555	0	0	0	0	0	0	0	0	0	
1583	0	166	1245	29	1997	556	0	0	0	0	0	0	0	0	0	
1584	0	109	1232	28	1956	557	0	0	0	0	0	0	0	0	0	
1585	0	139	1219	28	2013	558	0	0	0	0	0	0	0	0	0	
1586	0	119	1246	29	2002	559	0	0	0	0	0	0	0	0	0	
1587	0	114	1257	29	1976	560	0	0	0	0	0	0	0	0	0	
1588	0	130	1221	28	2033	561	0	0	0	0	0	0	0	0	0	
1589	0	122	1215	29	1984	562	0	0	0	0	0	0	0	0	0	
1590	0	78	1221	29	1988	563	0	0	0	0	0	0	0	0	0	
1591	0	145	1253	28	2020	564	0	0	0	0	0	0	0	0	0	
1592	0	115	1216	29	1935	565	0	0	0	0	0	0	0	0	0	
1593	0	117	1225	29	1967	566	0	0	0	0	0	0	0	0	0	
1594	0	143	1234	31	1998	567	0	0	0	0	0	0	0	0	0	
1595	0	114	1271	29	1976	568	0	0	0	0	0	0	0	0	0	
1596	0	132	1241	29	1984	569	0	0	0	0	0	0	0	0	0	
1597	0	95	1189	29	1956	570	0	0	0	0	0	0	0	0	0	
1598	0	98	1216	29	1994	571	0	0	0	0	0	0	0	0	0	
1599	0	98	1211	29	2002	572	0	0	0	0	0	0	0	0	0	
1600	0	96	1232	29	1917	573	0	0	0	0	0	0	0	0	0	
1601	0	148	1213	28	1990	574	0	0	0	0	0	0	0	0	0	
1602	0	145	1272	28	2042	575	0	0	0	0	0	0	0	0	0	
1603	0	138	1239	30	1988	576	0	0	0	0	0	0	0	0	0	
1604	0	118	1231	29	1978	577	0	0	0	0	0	0	0	0	0	
1605	0	120	1221	29	1977	578	0	0	0	0	0	0	0	0	0	
1606	0	127	1224	29	2002	579	0	0	0	0	0	0	0	0	0	
1607	0	107	1214	29	1983	580	0	0	0	0	0	0	0	0	0	
1608	0	129	1151	28	2016	581	0	0	0	0	0	0	0	0	0	
1609	0	123	1236	29	1954	582	0	0	0	0	0	0	0	0	0	
1610	0	109	1216	29	1976	583	0	0	0	0	0	0	0	0	0	
1611	0	129	1226	29	1985	584	0	0	0	0	0	0	0	0	0	
1612	0	108	1244	29	1986	585	0	0	0	0	0	0	0	0	0	
1613	0	103	1260	30	1964	586	0	0	0	0	0	0	0	0	0	
1614	0	87	1221	29	2004	587	0	0	0	0	0	0	0	0	0	
1615	0	117	1223	30	1993	588	0	0	0	0	0	0	0	0	0	
1616	0	129	1184	29	1970	589	0	0	0	0	0	0	0	0	0	
1617	0	69	1210	28	2004	590	0	0	0	0	0	0	0	0	0	
1618	0	108	1246	29	1986	591	0	0	0	0	0	0	0	0	0	
1619	0	118	1174	29	1986	592	0	0	0	0	0	0	0	0	0	
1620	0	107	1213	28	1998	593	0	0	0	0	0	0	0	0	0	
1621	0	136	1228	29	2004	594	0	0	0	0	0	0	0	0	0	
1622	0	116	1280	29	1999	595	0	0	0	0	0	0	0	0	0	
1623	0	124	1221	29	1970	596	0	0	0	0	0	0	0	0	0	
1624	0	151	1222	29	2015	597	0	0	0	0	0	0	0	0	0	
1625	0	101	1195	29	1966	598	0	0	0	0	0	0	0	0	0	
1626	0	121	1228	29	1954	599	0	0	0	0	0	0	0	0	0	
1627	0	110	1233	28	1977	600	0	0	0	0	0	0	0	0	0	
1628	0	125	1240	30	2009	601	0	0	0	0	0	0	0	0	0	
1629	0	120	1241	30	1961	602	0	0	0	0	0	0	0	0	0	
1630	0	111	1232	28	1938	603	0	0	0	0	0	0	0	0	0	
1631	0	144	1222	28	1970	604	0	0	0	0	0	0	0	0	0	
1632	0	139	1252	29	1946	605	0	0	0	0	0	0	0	0	0	
1633	0	127	1219	30	2003	606	0	0	0	0	0	0	0	0	0	
1634	0	107	1224	29	1978	607	0	0	0	0	0	0	0	0	0	
1635	0	132	1248	28	1986	608	0	0	0	0	0	0	0	0	0	
1636	0	138	1218	28	2025	609	0	0	0	0	0	0	0	0	0	
1637	0	84	1220	30	2001	610	0	0	0	0	0	0	0	0	0	
1638	0	108	1236	29	2026	611	0	0	0	0	0	0	0	0	0	
1639	0	133	1236	29	1985	612	0	0	0	0	0	0	0	0	0	
1640	0	140	1235	29	1972	613	0	0	0	0	0	0	0	0	0	
1641	0	107	1221	30	1988	614	0	0	0	0	0	0	0	0	0	
1642	0	179	1237	28	1957	615	0	0	0	0	0	0	0	0	0	
1643	0	79	1217	30	1985	616	0	0	0	0	0	0	0	0	0	
1644	0	108	1241	28	1988	617	0	0	0	0	0	0	0	0	0	
1645	0	107	1261	29	1980	618	0	0	0	0	0	0	0	0	0	
1646	0	37	1234	29	1948	619	0	0	0	0	0	0	0	0	0	
1647	0	125	1253	30	2000	620	0	0	0	0	0	0	0	0	0	
1648	0	132	1256	28	1933	621	0	0	0	0	0	0	0	0	0	
1649	0	113	1247	28	2007	622	0	0	0	0	0	0	0	0	0	
1650	0	149	1238	28	1988	623	0	0	0	0	0	0	0	0	0	
1651	0	133	1252	28	2001	624	0	0	0	0	0	0	0	0	0	
1652	0	120	1220	30	1968	625	0	0	0	0	0	0	0	0	0	
1653	0	94	1233	29	1989	626	0	0	0	0	0	0	0	0	0	
1654	0	51	1266	29	1988	627	0	0	0	0	0	0	0	0	0	
1655	0	115	1204	30	1958	628	0	0	0	0	0	0	0	0	0	
1656	0	117	1237	28	1986	629	0	0	0	0	0	0	0	0	0	
1657	0	123	1231	29	1954	630	0	0	0	0	0	0	0	0	0	
1658	0	130	1258	30	1992	631	0	0	0	0	0	0	0	0	0	
1659	0	102	1264	29	2011	632	0	0	0	0	0	0	0	0	0	
1660	0	74	1257	29	1979	633	0	0	0	0	0	0	0	0	0	
1661	0	114	1240	29	1973	634	0	0	0	0	0	0	0	0	0	
1662	0	92	1224	28	1996	635	0	0	0	0	0	0	0	0	0	
1663	0	88	1242	29	2009	636	0	0	0	0	0	0	0	0	0	
1664	0	138	1259	29	1970	637	0	0	0	0	0	0	0	0	0	
1665	0	128	1171	28	1989	638	0	0	0	0	0	0	0	0	0	
1666	0	143	1290	28	1996	639	0	0	0	0	0	0	0	0	0	
1667	0	125	1289	29	1947	640	0	0	0	0	0	0	0	0	0	
1668	0	164	1232	29	1979	641	0	0	0	0	0	0	0	0	0	
1669	0	132	1254	29	2000	642	0	0	0	0	0	0	0	0	0	
1670	0	131	1234	30	1992	643	0	0	0	0	0	0	0	0	0	
1671	0	131	1220	30	1982	644	0	0	0	0	0	0	0	0	0	
1672	0	36	1248	30	1995	645	0	0	0	0	0	0	0	0	0	
1673	0	127	1234	29	2005	646	0	0	0	0	0	0	0	0	0	
1674	0	86	1228	28	1996	647	0	0	0	0	0	0	0	0	0	
1675	0	120	1194	29	2011	648	0	0	0	0	0	0	0	0	0	
1676	0	129	1229	28	1979	649	0	0	0	0	0	0	0	0	0	
1677	0	105	1202	31	2014	650	0	0	0	0	0	0	0	0	0	
1678	0	108	1243	29	2010	651	0	0	0	0	0	0	0	0	0	
1679	0	102	1208	29	1966	652	0	0	0	0	0	0	0	0	0	
1680	0	120	1249	29	1975	653	0	0	0	0	0	0	0	0	0	
1681	0	83	1216	28	1999	654	0	0	0	0	0	0	0	0	0	
1682	0	123	1184	29	1992	655	0	0	0	0	0	0	0	0	0	
1683	0	123	1181	30	1992	656	0	0	0	0	0	0	0	0	0	
1684	0	63	1214	29	2018	657	0	0	0	0	0	0	0	0	0	
1685	0	118	1220	28	1971	658	0	0	0	0	0	0	0	0	0	
1686	0	94	1246	29	1974	659	0	0	0	0	0	0	0	0	0	
1687	0	124	1182	28	1954	660	0	0	0	0	0	0	0	0	0	
1688	0	100	1201	29	1963	661	0	0	0	0	0	0	0	0	0	
1689	0	116	1186	29	1988	662	0	0	0	0	0	0	0	0	0	
1690	0	134	1250	29	1934	663	0	0	0	0	0	0	0	0	0	
1691	0	126	1217	29	1954	664	0	0	0	0	0	0	0	0	0	
1692	0	108	1218	29	1986	665	0	0	0	0	0	0	0	0	0	
1693	0	88	1186	29	1989	666	0	0	0	0	0	0	0	0	0	
1694	0	104	1265	31	1985	667	0	0	0	0	0	0	0	0	0	
1695	0	113	1230	28	1982	668	0	0	0	0	0	0	0	0	0	
1696	0	100	1218	29	1964	669	0	0	0	0	0	0	0	0	0	
1697	0	132	1249	29	1952	670	0	0	0	0	0	0	0	0	0	
1698	0	123	1225	29	1948	671	0	0	0	0	0	0	0	0	0	
1699	0	147	1208	28	1978	672	0	0	0	0	0	0	0	0	0	
1700	0	92	1201	29	2010	673	0	0	0	0	0	0	0	0	0	
1701	0	101	1220	29	2001	674	0	0	0	0	0	0	0	0	0	
1702	0	113	1262	30	1977	675	0	0	0	0	0	0	0	0	0	
1703	0	142	1269	29	1956	676	0	0	0	0	0	0	0	0	0	
1704	0	102	1197	29	1968	677	0	0	0	0	0	0	0	0	0	
1705	0	76	1214	28	2005	678	0	0	0	0	0	0	0	0	0	
1706	0	127	1180	31	1985	679	0	0	0	0	0	0	0	0	0	
1707	0	152	1250	29	1957	680	0	0	0	0	0	0	0	0	0	
1708	0	109	1208	31	1965	681	0	0	0	0	0	0	0	0	0	
1709	0	136	1206	30	1978	682	0	0	0	0	0	0	0	0	0	
1710	0	139	1225	29	2000	683	0	0	0	0	0	0	0	0	0	
1711	0	125	1249	28	2002	684	0	0	0	0	0	0	0	0	0	
1712	0	38	1232	29	1957	685	0	0	0	0	0	0	0	0	0	
1713	0	125	1234	29	1987	686	0	0	0	0	0	0	0	0	0	
1714	0	88	1221	29	2029	687	0	0	0	0	0	0	0	0	0	
1715	0	123	1189	29	1981	688	0	0	0	0	0	0	0	0	0	
1716	0	120	1226	29	1992	689	0	0	0	0	0	0	0	0	0	
1717	0	112	1254	29	1932	690	0	0	0	0	0	0	0	0	0	
1718	0	102	1244	29	1975	691	0	0	0	0	0	0	0	0	0	
1719	0	125	1247	29	2020	692	0	0	0	0	0	0	0	0	0	
1720	0	121	1232	30	1963	693	0	0	0	0	0	0	0	0	0	
1721	0	145	1211	29	1964	694	0	0	0	0	0	0	0	0	0	
1722	0	133	1248	30	2000	695	0	0	0	0	0	0	0	0	0	
1723	0	132	1232	30	1953	696	0	0	0	0	0	0	0	0	0	
1724	0	127	1253	29	2013	697	0	0	0	0	0	0	0	0	0	
1725	0	95	1280	28	1972	698	0	0	0	0	0	0	0	0	0	
1726	0	115	1261	28	1998	699	0	0	0	0	0	0	0	0	0	
1727	0	106	1219	30	2016	700	0	0	0	0	0	0	0	0	0	
1728	0	139	1239	30	1971	701	0	0	0	0	0	0	0	0	0	
1729	0	105	1209	29	1997	702	0	0	0	0	0	0	0	0	0	
1730	0	74	1268	29	2006	703	0	0	0	0	0	0	0	0	0	
1731	0	103	1201	30	2007	704	0	0	0	0	0	0	0	0	0	
1732	0	127	1250	29	1967	705	0	0	0	0	0	0	0	0	0	
1733	0	127	1242	29	1965	706	0	0	0	0	0	0	0	0	0	
1734	0	132	1226	28	1971	707	0	0	0	0	0	0	0	0	0	
1735	0	134	1228	29	1970	708	0	0	0	0	0	0	0	0	0	
1736	0	103	1200	29	1969	709	0	0	0	0	0	0	0	0	0	
1737	0	125	1253	29	1987	710	0	0	0	0	0	0	0	0	0	
1738	0	83	1196	29	2006	711	0	0	0	0	0	0	0	0	0	
1739	0	119	1258	30	1965	712	0	0	0	0	0	0	0	0	0	
1740	0	81	1208	27	1982	713	0	0	0	0	0	0	0	0	0	
1741	0	90	1231	29	1972	714	0	0	0	0	0	0	0	0	0	
1742	0	123	1259	28	1988	715	0	0	0	0	0	0	0	0	0	
1743	0	115	1257	29	2015	716	0	0	0	0	0	0	0	0	0	
1744	0	98	1236	29	1989	717	0	0	0	0	0	0	0	0	0	
1745	0	112	1219	30	1974	718	0	0	0	0	0	0	0	0	0	
1746	0	113	1210	28	1967	719	0	0	0	0	0	0	0	0	0	
1747	0	96	1222	29	1982	720	0	0	0	0	0	0	0	0	0	
1748	0	116	1234	29	2002	721	0	0	0	0	0	0	0	0	0	
1749	0	111	1222	29	1964	722	0	0	0	0	0	0	0	0	0	
1750	0	133	1210	29	1978	723	0	0	0	0	0	0	0	0	0	
1751	0	143	1183	30	1988	724	0	0	0	0	0	0	0	0	0	
1752	0	107	1253	29	2013	725	0	0	0	0	0	0	0	0	0	
1753	0	126	1218	28	1972	726	0	0	0	0	0	0	0	0	0	
1754	0	100	1216	29	1972	727	0	0	0	0	0	0	0	0	0	
1755	0	109	1252	29	1974	728	0	0	0	0	0	0	0	0	0	
1756	0	103	1228	28	1972	729	0	0	0	0	0	0	0	0	0	
1757	0	112	1197	30	1939	730	0	0	0	0	0	0	0	0	0	
1758	0	136	1252	28	1982	731	0	0	0	0	0	0	0	0	0	
1759	0	91	1271	30	1961	732	0	0	0	0	0	0	0	0	0	
1760	0	127	1203	28	1984	733	0	0	0	0	0	0	0	0	0	
1761	0	71	1205	30	2038	734	0	0	0	0	0	0	0	0	0	
1762	0	105	1238	29	1952	735	0	0	0	0	0	0	0	0	0	
1763	0	142	1235	29	2002	736	0	0	0	0	0	0	0	0	0	
1764	0	158	1197	29	2005	737	0	0	0	0	0	0	0	0	0	
1765	0	106	1208	29	2019	738	0	0	0	0	0	0	0	0	0	
1766	0	129	1252	28	1992	739	0	0	0	0	0	0	0	0	0	
1767	0	110	1251	29	2020	740	0	0	0	0	0	0	0	0	0	
1768	0	125	1207	30	1938	741	0	0	0	0	0	0	0	0	0	
1769	0	122	1232	29	2011	742	0	0	0	0	0	0	0	0	0	
1770	0	104	1251	29	1978	743	0	0	0	0	0	0	0	0	0	
1771	0	161	1232	28	1977	744	0	0	0	0	0	0	0	0	0	
1772	0	75	1235	29	1995	745	0	0	0	0	0	0	0	0	0	
1773	0	126	1229	29	1936	746	0	0	0	0	0	0	0	0	0	
1774	0	116	1252	29	1976	747	0	0	0	0	0	0	0	0	0	
1775	0	171	1210	28	2003	748	0	0	0	0	0	0	0	0	0	
1776	0	82	1222	30	1975	749	0	0	0	0	0	0	0	0	0	
1777	0	86	1258	29	1966	750	0	0	0	0	0	0	0	0	0	
1778	0	107	1266	29	1962	751	0	0	0	0	0	0	0	0	0	
1779	0	118	1232	29	1967	752	0	0	0	0	0	0	0	0	0	
1780	0	101	1220	29	1990	753	0	0	0	0	0	0	0	0	0	
1781	0	37	1205	27	1949	754	0	0	0	0	0	0	0	0	0	
1782	0	121	1221	29	1949	755	0	0	0	0	0	0	0	0	0	
1783	0	90	1229	28	1949	756	0	0	0	0	0	0	0	0	0	
1784	0	88	1276	29	1960	757	0	0	0	0	0	0	0	0	0	
1785	0	131	1230	29	1974	758	0	0	0	0	0	0	0	0	0	
1786	0	106	1249	29	1992	759	0	0	0	0	0	0	0	0	0	
1787	0	136	1214	29	1991	760	0	0	0	0	0	0	0	0	0	
1788	0	108	1225	29	1982	761	0	0	0	0	0	0	0	0	0	
1789	0	137	1211	29	1969	762	0	0	0	0	0	0	0	0	0	
1790	0	90	1232	31	2020	763	0	0	0	0	0	0	0	0	0	
1791	0	117	1277	28	1982	764	0	0	0	0	0	0	0	0	0	
1792	0	98	1224	29	1994	765	0	0	0	0	0	0	0	0	0	
1793	0	125	1209	30	2068	766	0	0	0	0	0	0	0	0	0	
1794	0	116	1242	30	1966	767	0	0	0	0	0	0	0	0	0	
1795	0	81	1220	27	1984	768	0	0	0	0	0	0	0	0	0	
1796	0	136	1212	30	1985	769	0	0	0	0	0	0	0	0	0	
1797	0	100	1221	28	1995	770	0	0	0	0	0	0	0	0	0	
1798	0	130	1198	28	1971	771	0	0	0	0	0	0	0	0	0	
1799	0	120	1246	28	1945	772	0	0	0	0	0	0	0	0	0	
1800	0	124	1223	28	1988	773	0	0	0	0	0	0	0	0	0	
1801	0	100	1236	29	1973	774	0	0	0	0	0	0	0	0	0	
1802	0	134	1232	30	1957	775	0	0	0	0	0	0	0	0	0	
1803	0	129	1257	28	1982	776	0	0	0	0	0	0	0	0	0	
1804	0	122	1247	30	1998	777	0	0	0	0	0	0	0	0	0	
1805	0	91	1212	29	1972	778	0	0	0	0	0	0	0	0	0	
1806	0	101	1226	28	1946	779	0	0	0	0	0	0	0	0	0	
1807	0	136	1228	29	1976	780	0	0	0	0	0	0	0	0	0	
1808	0	119	1202	29	1954	781	0	0	0	0	0	0	0	0	0	
1809	0	109	1258	29	1990	782	0	0	0	0	0	0	0	0	0	
1810	0	129	1239	29	1967	783	0	0	0	0	0	0	0	0	0	
1811	0	100	1206	29	1956	784	0	0	0	0	0	0	0	0	0	
1812	0	73	1220	29	1967	785	0	0	0	0	0	0	0	0	0	
1813	0	106	1273	30	1959	786	0	0	0	0	0	0	0	0	0	
1814	0	139	1251	28	1990	787	0	0	0	0	0	0	0	0	0	
1815	0	122	1205	28	1997	788	0	0	0	0	0	0	0	0	0	
1816	0	87	1259	30	1975	789	0	0	0	0	0	0	0	0	0	
1817	0	110	1233	29	1998	790	0	0	0	0	0	0	0	0	0	
1818	0	106	1212	29	2009	791	0	0	0	0	0	0	0	0	0	
1819	0	146	1251	29	1987	792	0	0	0	0	0	0	0	0	0	
1820	0	151	1243	29	1973	793	0	0	0	0	0	0	0	0	0	
1821	0	109	1202	30	1997	794	0	0	0	0	0	0	0	0	0	
1822	0	119	1241	29	1986	795	0	0	0	0	0	0	0	0	0	
1823	0	87	1205	29	1987	796	0	0	0	0	0	0	0	0	0	
1824	0	126	1231	30	1990	797	0	0	0	0	0	0	0	0	0	
1825	0	122	1222	29	1959	798	0	0	0	0	0	0	0	0	0	
1826	0	132	1247	28	2009	799	0	0	0	0	0	0	0	0	0	
1827	0	105	1227	29	1960	800	0	0	0	0	0	0	0	0	0	
1828	0	120	1257	28	1988	801	0	0	0	0	0	0	0	0	0	
1829	0	130	1208	28	1988	802	0	0	0	0	0	0	0	0	0	
1830	0	82	1228	30	1985	803	0	0	0	0	0	0	0	0	0	
1831	0	129	1249	29	1999	804	0	0	0	0	0	0	0	0	0	
1832	0	128	1262	30	1986	805	0	0	0	0	0	0	0	0	0	
1833	0	115	1211	29	1963	806	0	0	0	0	0	0	0	0	0	
1834	0	87	1237	28	1959	807	0	0	0	0	0	0	0	0	0	
1835	0	116	1235	29	1972	808	0	0	0	0	0	0	0	0	0	
1836	0	100	1222	29	1939	809	0	0	0	0	0	0	0	0	0	
1837	0	137	1192	29	1978	810	0	0	0	0	0	0	0	0	0	
1838	0	129	1209	29	2013	811	0	0	0	0	0	0	0	0	0	
1839	0	98	1209	29	1972	812	0	0	0	0	0	0	0	0	0	
1840	0	110	1241	29	1966	813	0	0	0	0	0	0	0	0	0	
1841	0	111	1172	30	1989	814	0	0	0	0	0	0	0	0	0	
1842	0	138	1199	30	1987	815	0	0	0	0	0	0	0	0	0	
1843	0	110	1218	30	1988	816	0	0	0	0	0	0	0	0	0	
1844	0	95	1224	28	2022	817	0	0	0	0	0	0	0	0	0	
1845	0	133	1197	29	1959	818	0	0	0	0	0	0	0	0	0	
1846	0	133	1293	28	1972	819	0	0	0	0	0	0	0	0	0	
1847	0	101	1218	29	2000	820	0	0	0	0	0	0	0	0	0	
1848	0	136	1250	29	1971	821	0	0	0	0	0	0	0	0	0	
1849	0	127	1220	29	2015	822	0	0	0	0	0	0	0	0	0	
1850	0	102	1217	29	2026	823	0	0	0	0	0	0	0	0	0	
1851	0	90	1228	29	1936	824	0	0	0	0	0	0	0	0	0	
1852	0	156	1208	28	1992	825	0	0	0	0	0	0	0	0	0	
1853	0	116	1224	29	2005	826	0	0	0	0	0	0	0	0	0	
1854	0	139	1216	28	1987	827	0	0	0	0	0	0	0	0	0	
1855	0	114	1160	30	1959	828	0	0	0	0	0	0	0	0	0	
1856	0	114	1200	28	2016	829	0	0	0	0	0	0	0	0	0	
1857	0	131	1253	29	1973	830	0	0	0	0	0	0	0	0	0	
1858	0	156	1221	29	1958	831	0	0	0	0	0	0	0	0	0	
1859	0	106	1227	29	1992	832	0	0	0	0	0	0	0	0	0	
1860	0	107	1201	29	1990	833	0	0	0	0	0	0	0	0	0	
1861	0	120	1228	29	2019	834	0	0	0	0	0	0	0	0	0	
1862	0	133	1209	28	1965	835	0	0	0	0	0	0	0	0	0	
1863	0	70	1215	29	2007	836	0	0	0	0	0	0	0	0	0	
1864	0	130	1235	27	1995	837	0	0	0	0	0	0	0	0	0	
1865	0	141	1192	29	2013	838	0	0	0	0	0	0	0	0	0	
1866	0	137	1224	29	1992	839	0	0	0	0	0	0	0	0	0	
1867	0	142	1201	30	2015	840	0	0	0	0	0	0	0	0	0	
1868	0	105	1187	29	1956	841	0	0	0	0	0	0	0	0	0	
1869	0	95	1252	28	1965	842	0	0	0	0	0	0	0	0	0	
1870	0	154	1244	29	2003	843	0	0	0	0	0	0	0	0	0	
1871	0	111	1274	29	2000	844	0	0	0	0	0	0	0	0	0	
1872	0	132	1250	30	1947	845	0	0	0	0	0	0	0	0	0	
1873	0	115	1252	29	1982	846	0	0	0	0	0	0	0	0	0	
1874	0	159	1232	29	1958	847	0	0	0	0	0	0	0	0	0	
1875	0	110	1231	29	1989	848	0	0	0	0	0	0	0	0	0	
1876	0	123	1220	29	1988	849	0	0	0	0	0	0	0	0	0	
1877	0	115	1235	29	1970	850	0	0	0	0	0	0	0	0	0	
1878	0	131	1205	28	1987	851	0	0	0	0	0	0	0	0	0	
1879	0	104	1245	30	1984	852	0	0	0	0	0	0	0	0	0	
1880	0	141	1221	29	1969	853	0	0	0	0	0	0	0	0	0	
1881	0	110	1195	30	1984	854	0	0	0	0	0	0	0	0	0	
1882	0	116	1265	27	1962	855	0	0	0	0	0	0	0	0	0	
1883	0	108	1252	29	1976	856	0	0	0	0	0	0	0	0	0	
1884	0	165	1188	28	1989	857	0	0	0	0	0	0	0	0	0	
1885	0	108	1232	29	1969	858	0	0	0	0	0	0	0	0	0	
1886	0	96	1197	29	1965	859	0	0	0	0	0	0	0	0	0	
1887	0	116	1213	28	1989	860	0	0	0	0	0	0	0	0	0	
1888	0	147	1235	28	1941	861	0	0	0	0	0	0	0	0	0	
1889	0	132	1220	30	1956	862	0	0	0	0	0	0	0	0	0	
1890	0	116	1231	30	1987	863	0	0	0	0	0	0	0	0	0	
1891	0	126	1206	29	1971	864	0	0	0	0	0	0	0	0	0	
1892	0	98	1251	28	1987	865	0	0	0	0	0	0	0	0	0	
1893	0	102	1273	30	1989	866	0	0	0	0	0	0	0	0	0	
1894	0	102	1252	28	2004	867	0	0	0	0	0	0	0	0	0	
1895	0	96	1226	29	1957	868	0	0	0	0	0	0	0	0	0	
1896	0	106	1252	29	1992	869	0	0	0	0	0	0	0	0	0	
1897	0	152	1219	30	1965	870	0	0	0	0	0	0	0	0	0	
1898	0	105	1245	29	2008	871	0	0	0	0	0	0	0	0	0	
1899	0	126	1227	28	1971	872	0	0	0	0	0	0	0	0	0	
1900	0	135	1242	28	1923	873	0	0	0	0	0	0	0	0	0	
1901	0	140	1268	29	2016	874	0	0	0	0	0	0	0	0	0	
1902	0	120	1210	29	1984	875	0	0	0	0	0	0	0	0	0	
1903	0	165	1237	29	1999	876	0	0	0	0	0	0	0	0	0	
1904	0	112	1207	29	2021	877	0	0	0	0	0	0	0	0	0	
1905	0	135	1203	28	2028	878	0	0	0	0	0	0	0	0	0	
1906	0	106	1247	28	1958	879	0	0	0	0	0	0	0	0	0	
1907	0	73	1221	28	2012	880	0	0	0	0	0	0	0	0	0	
1908	0	121	1262	30	1983	881	0	0	0	0	0	0	0	0	0	
1909	0	111	1188	28	1967	882	0	0	0	0	0	0	0	0	0	
1910	0	95	1258	28	1950	883	0	0	0	0	0	0	0	0	0	
1911	0	133	1236	30	1960	884	0	0	0	0	0	0	0	0	0	
1912	0	125	1233	28	1983	885	0	0	0	0	0	0	0	0	0	
1913	0	115	1278	29	2021	886	0	0	0	0	0	0	0	0	0	
1914	0	92	1192	29	1989	887	0	0	0	0	0	0	0	0	0	
1915	0	108	1230	29	1955	888	0	0	0	0	0	0	0	0	0	
1916	0	132	1203	29	1942	889	0	0	0	0	0	0	0	0	0	
1917	0	98	1251	28	1984	890	0	0	0	0	0	0	0	0	0	
1918	0	146	1235	29	1959	891	0	0	0	0	0	0	0	0	0	
1919	0	77	1208	30	2004	892	0	0	0	0	0	0	0	0	0	
1920	0	103	1231	29	1936	893	0	0	0	0	0	0	0	0	0	
1921	0	112	1256	30	1995	894	0	0	0	0	0	0	0	0	0	
1922	0	121	1234	29	2005	895	0	0	0	0	0	0	0	0	0	
1923	0	102	1201	29	1948	896	0	0	0	0	0	0	0	0	0	
1924	0	164	1204	27	1964	897	0	0	0	0	0	0	0	0	0	
1925	0	78	1236	29	2027	898	0	0	0	0	0	0	0	0	0	
1926	0	64	1217	30	1999	899	0	0	0	0	0	0	0	0	0	
1927	0	125	1261	29	1956	900	0	0	0	0	0	0	0	0	0	
1928	0	131	1268	29	1973	901	0	0	0	0	0	0	0	0	0	
1929	0	96	1187	30	2013	902	0	0	0	0	0	0	0	0	0	
1930	0	127	1185	30	2006	903	0	0	0	0	0	0	0	0	0	
1931	0	107	1254	30	2010	904	0	0	0	0	0	0	0	0	0	
1932	0	138	1253	30	1989	905	0	0	0	0	0	0	0	0	0	
1933	0	135	1238	29	1953	906	0	0	0	0	0	0	0	0	0	
1934	0	111	1204	29	2031	907	0	0	0	0	0	0	0	0	0	
1935	0	129	1213	28	1947	908	0	0	0	0	0	0	0	0	0	
1936	0	130	1219	30	1965	909	0	0	0	0	0	0	0	0	0	
1937	0	100	1226	30	1956	910	0	0	0	0	0	0	0	0	0	
1938	0	108	1225	29	1982	911	0	0	0	0	0	0	0	0	0	
1939	0	114	1217	29	1964	912	0	0	0	0	0	0	0	0	0	
1940	0	148	1224	29	1959	913	0	0	0	0	0	0	0	0	0	
1941	0	123	1226	29	1962	914	0	0	0	0	0	0	0	0	0	
1942	0	128	1213	31	1997	915	0	0	0	0	0	0	0	0	0	
1943	0	105	1207	28	2026	916	0	0	0	0	0	0	0	0	0	
1944	0	86	1205	29	2018	917	0	0	0	0	0	0	0	0	0	
1945	0	168	1248	29	1995	918	0	0	0	0	0	0	0	0	0	
1946	0	96	1207	28	2023	919	0	0	0	0	0	0	0	0	0	
1947	0	112	1184	29	2013	920	0	0	0	0	0	0	0	0	0	
1948	0	92	1265	28	1962	921	0	0	0	0	0	0	0	0	0	
1949	0	126	1241	30	2018	922	0	0	0	0	0	0	0	0	0	
1950	0	111	1227	29	1989	923	0	0	0	0	0	0	0	0	0	
1951	0	129	1280	29	1986	924	0	0	0	0	0	0	0	0	0	
1952	0	97	1218	29	1982	925	0	0	0	0	0	0	0	0	0	
1953	0	78	1268	30	1975	926	0	0	0	0	0	0	0	0	0	
1954	0	128	1211	28	1974	927	0	0	0	0	0	0	0	0	0	
1955	0	101	1244	29	1970	928	0	0	0	0	0	0	0	0	0	
1956	0	133	1271	28	1963	929	0	0	0	0	0	0	0	0	0	
1957	0	118	1231	28	2004	930	0	0	0	0	0	0	0	0	0	
1958	0	118	1202	29	1991	931	0	0	0	0	0	0	0	0	0	
1959	0	158	1224	30	1959	932	0	0	0	0	0	0	0	0	0	
1960	0	132	1204	28	1998	933	0	0	0	0	0	0	0	0	0	
1961	0	82	1195	29	1969	934	0	0	0	0	0	0	0	0	0	
1962	0	80	1203	28	1950	935	0	0	0	0	0	0	0	0	0	
1963	0	76	1278	29	1987	936	0	0	0	0	0	0	0	0	0	
1964	0	129	1243	30	2024	937	0	0	0	0	0	0	0	0	0	
1965	0	119	1245	29	2012	938	0	0	0	0	0	0	0	0	0	
1966	0	99	1286	29	1978	939	0	0	0	0	0	0	0	0	0	
1967	0	128	1276	30	1988	940	0	0	0	0	0	0	0	0	0	
1968	0	83	1256	29	1960	941	0	0	0	0	0	0	0	0	0	
1969	0	155	1209	30	2030	942	0	0	0	0	0	0	0	0	0	
1970	0	114	1280	28	2005	943	0	0	0	0	0	0	0	0	0	
1971	0	125	1258	29	1985	944	0	0	0	0	0	0	0	0	0	
1972	0	119	1235	30	2008	945	0	0	0	0	0	0	0	0	0	
1973	0	129	1249	28	1968	946	0	0	0	0	0	0	0	0	0	
1974	0	107	1237	29	1958	947	0	0	0	0	0	0	0	0	0	
1975	0	106	1251	28	1973	948	0	0	0	0	0	0	0	0	0	
1976	0	136	1224	28	1972	949	0	0	0	0	0	0	0	0	0	
1977	0	52	1231	29	1965	950	0	0	0	0	0	0	0	0	0	
1978	0	127	1227	29	1979	951	0	0	0	0	0	0	0	0	0	
1979	0	69	1245	30	2027	952	0	0	0	0	0	0	0	0	0	
1980	0	115	1256	29	1981	953	0	0	0	0	0	0	0	0	0	
1981	0	65	1280	29	1978	954	0	0	0	0	0	0	0	0	0	
1982	0	92	1212	29	2006	955	0	0	0	0	0	0	0	0	0	
1983	0	104	1223	30	2006	956	0	0	0	0	0	0	0	0	0	
1984	0	125	1220	29	2005	957	0	0	0	0	0	0	0	0	0	
1985	0	98	1250	29	1944	958	0	0	0	0	0	0	0	0	0	
1986	0	137	1221	28	1987	959	0	0	0	0	0	0	0	0	0	
1987	0	80	1229	30	1992	960	0	0	0	0	0	0	0	0	0	
1988	0	88	1239	29	2008	961	0	0	0	0	0	0	0	0	0	
1989	0	125	1209	29	2003	962	0	0	0	0	0	0	0	0	0	
1990	0	92	1263	28	1998	963	0	0	0	0	0	0	0	0	0	
1991	0	104	1259	29	1980	964	0	0	0	0	0	0	0	0	0	
1992	0	86	1184	29	1958	965	0	0	0	0	0	0	0	0	0	
1993	0	107	1184	29	1939	966	0	0	0	0	0	0	0	0	0	
1994	0	66	1202	29	1977	967	0	0	0	0	0	0	0	0	0	
1995	0	140	1220	29	2006	968	0	0	0	0	0	0	0	0	0	
1996	0	144	1253	30	1970	969	0	0	0	0	0	0	0	0	0	
1997	0	129	1238	28	1973	970	0	0	0	0	0	0	0	0	0	
1998	0	133	1250	28	1964	971	0	0	0	0	0	0	0	0	0	
1999	0	116	1213	29	1981	972	0	0	0	0	0	0	0	0	0	
2000	0	127	1221	29	1997	973	0	0	0	0	0	0	0	0	0	
2001	0	109	1205	27	2016	974	0	0	0	0	0	0	0	0	0	
2002	0	140	1252	29	1994	975	0	0	0	0	0	0	0	0	0	
2003	0	104	1211	29	1993	976	0	0	0	0	0	0	0	0	0	
2004	0	132	1241	29	1996	977	0	0	0	0	0	0	0	0	0	
2005	0	72	1253	29	2012	978	0	0	0	0	0	0	0	0	0	
2006	0	111	1213	28	1974	979	0	0	0	0	0	0	0	0	0	
2007	0	100	1184	30	1993	980	0	0	0	0	0	0	0	0	0	
2008	0	129	1220	29	2008	981	0	0	0	0	0	0	0	0	0	
2009	0	103	1211	28	1956	982	0	0	0	0	0	0	0	0	0	
2010	0	76	1246	30	1979	983	0	0	0	0	0	0	0	0	0	
2011	0	125	1238	28	1980	984	0	0	0	0	0	0	0	0	0	
2012	0	124	1239	29	2002	985	0	0	0	0	0	0	0	0	0	
2013	0	151	1208	29	1987	986	0	0	0	0	0	0	0	0	0	
2014	0	152	1267	28	2009	987	0	0	0	0	0	0	0	0	0	
2015	0	94	1292	29	1965	988	0	0	0	0	0	0	0	0	0	
2016	0	119	1252	29	1988	989	0	0	0	0	0	0	0	0	0	
2017	0	140	1231	30	1963	990	0	0	0	0	0	0	0	0	0	
2018	0	185	1250	29	1994	991	0	0	0	0	0	0	0	0	0	
2019	0	132	1236	28	1989	992	0	0	0	0	0	0	0	0	0	
2020	0	97	1252	29	1954	993	0	0	0	0	0	0	0	0	0	
2021	0	128	1238	30	1973	994	0	0	0	0	0	0	0	0	0	
2022	0	117	1256	29	1935	995	0	0	0	0	0	0	0	0	0	
2023	0	142	1209	29	1973	996	0	0	0	0	0	0	0	0	0	
2024	0	137	1218	30	1987	997	0	0	0	0	0	0	0	0	0	
2025	0	119	1253	29	1987	998	0	0	0	0	0	0	0	0	0	
2026	0	123	1245	29	1996	999	0	0	0	0	0	0	0	0	0	
2027	0	115	1264	29	1974	1000	0	0	0	0	0	0	0	0	0	
2028	0	115	1213	29	1997	1001	0	0	0	0	0	0	0	0	0	
2029	0	113	1216	29	1971	1002	0	0	0	0	0	0	0	0	0	
2030	0	122	1199	29	1993	1003	0	0	0	0	0	0	0	0	0	
2031	0	159	1176	29	2019	1004	0	0	0	0	0	0	0	0	0	
2032	0	100	1223	28	1963	1005	0	0	0	0	0	0	0	0	0	
2033	0	110	1243	30	2022	1006	0	0	0	0	0	0	0	0	0	
2034	0	145	1234	28	2022	1007	0	0	0	0	0	0	0	0	0	
2035	0	105	1222	29	1944	1008	0	0	0	0	0	0	0	0	0	
2036	0	86	1248	28	1997	1009	0	0	0	0	0	0	0	0	0	
2037	0	123	1203	28	1959	1010	0	0	0	0	0	0	0	0	0	
2038	0	113	1222	30	1978	1011	0	0	0	0	0	0	0	0	0	
2039	0	83	1230	28	1972	1012	0	0	0	0	0	0	0	0	0	
2040	0	149	1230	29	1946	1013	0	0	0	0	0	0	0	0	0	
2041	0	141	1267	30	1960	1014	0	0	0	0	0	0	0	0	0	
2042	0	107	1224	28	1974	1015	0	0	0	0	0	0	0	0	0	
2043	0	118	1188	29	1978	1016	0	0	0	0	0	0	0	0	0	
2044	0	132	1259	30	1958	1017	0	0	0	0	0	0	0	0	0	
2045	0	123	1231	28	1935	1018	0	0	0	0	0	0	0	0	0	
2046	0	118	1197	30	1995	1019	0	0	0	0	0	0	0	0	0	
2047	0	104	1212	28	2034	1020	0	0	0	0	0	0	0	0	0	
2048	0	106	1201	29	1975	1021	0	0	0	0	0	0	0	0	0	
2049	0	131	1231	29	1960	1022	0	0	0	0	0	0	0	0	0	
2050	0	134	1232	29	1993	1023	0	0	0	0	0	0	0	0	0	
2051	0	146	1262	29	1966	1024	0	0	0	0	0	0	0	0	0	
2052	0	139	1259	30	1988	1025	0	0	0	0	0	0	0	0	0	
2053	0	140	1242	28	2000	1026	0	0	0	0	0	0	0	0	0	
2054	0	147	1253	29	2004	1027	0	0	0	0	0	0	0	0	0	
2055	0	122	1216	28	2002	1028	0	0	0	0	0	0	0	0	0	
2056	0	101	1240	30	2008	1029	0	0	0	0	0	0	0	0	0	
2057	0	112	1215	29	1963	1030	0	0	0	0	0	0	0	0	0	
2058	0	112	1190	30	1974	1031	0	0	0	0	0	0	0	0	0	
2059	0	109	1211	30	1972	1032	0	0	0	0	0	0	0	0	0	
2060	0	149	1220	29	1974	1033	0	0	0	0	0	0	0	0	0	
2061	0	151	1271	29	1973	1034	0	0	0	0	0	0	0	0	0	
2062	0	121	1251	28	1978	1035	0	0	0	0	0	0	0	0	0	
2063	0	80	1239	31	2010	1036	0	0	0	0	0	0	0	0	0	
2064	0	138	1232	29	1960	1037	0	0	0	0	0	0	0	0	0	
2065	0	127	1161	28	1979	1038	0	0	0	0	0	0	0	0	0	
2066	0	87	1236	29	2006	1039	0	0	0	0	0	0	0	0	0	
2067	0	72	1222	29	1970	1040	0	0	0	0	0	0	0	0	0	
2068	0	116	1222	29	1986	1041	0	0	0	0	0	0	0	0	0	
2069	0	142	1205	27	1974	1042	0	0	0	0	0	0	0	0	0	
2070	0	132	1220	29	1958	1043	0	0	0	0	0	0	0	0	0	
2071	0	195	1228	28	1970	1044	0	0	0	0	0	0	0	0	0	
2072	0	136	1248	29	1976	1045	0	0	0	0	0	0	0	0	0	
2073	0	122	1198	29	1993	1046	0	0	0	0	0	0	0	0	0	
2074	0	112	1259	30	1984	1047	0	0	0	0	0	0	0	0	0	
2075	0	118	1218	30	1954	1048	0	0	0	0	0	0	0	0	0	
2076	0	134	1216	28	1981	1049	0	0	0	0	0	0	0	0	0	
2077	0	142	1214	31	1995	1050	0	0	0	0	0	0	0	0	0	
2078	0	126	1231	29	1992	1051	0	0	0	0	0	0	0	0	0	
2079	0	120	1247	28	1981	1052	0	0	0	0	0	0	0	0	0	
2080	0	132	1200	30	1998	1053	0	0	0	0	0	0	0	0	0	
2081	0	166	1218	29	1973	1054	0	0	0	0	0	0	0	0	0	
2082	0	108	1169	30	1964	1055	0	0	0	0	0	0	0	0	0	
2083	0	129	1259	29	1987	1056	0	0	0	0	0	0	0	0	0	
2084	0	126	1260	29	1951	1057	0	0	0	0	0	0	0	0	0	
2085	0	142	1212	29	1936	1058	0	0	0	0	0	0	0	0	0	
2086	0	116	1200	30	2020	1059	0	0	0	0	0	0	0	0	0	
2087	0	96	1235	29	1992	1060	0	0	0	0	0	0	0	0	0	
2088	0	94	1207	28	1986	1061	0	0	0	0	0	0	0	0	0	
2089	0	127	1244	30	1979	1062	0	0	0	0	0	0	0	0	0	
2090	0	113	1240	29	1973	1063	0	0	0	0	0	0	0	0	0	
2091	0	129	1247	29	1967	1064	0	0	0	0	0	0	0	0	0	
2092	0	123	1204	31	1999	1065	0	0	0	0	0	0	0	0	0	
2093	0	132	1282	28	2008	1066	0	0	0	0	0	0	0	0	0	
2094	0	133	1217	29	1987	1067	0	0	0	0	0	0	0	0	0	
2095	0	86	1200	29	2019	1068	0	0	0	0	0	0	0	0	0	
2096	0	148	1213	28	1991	1069	0	0	0	0	0	0	0	0	0	
2097	0	147	1228	28	1979	1070	0	0	0	0	0	0	0	0	0	
2098	0	108	1244	29	1955	1071	0	0	0	0	0	0	0	0	0	
2099	0	100	1263	29	1969	1072	0	0	0	0	0	0	0	0	0	
2100	0	104	1263	28	2005	1073	0	0	0	0	0	0	0	0	0	
2101	0	102	1250	28	1963	1074	0	0	0	0	0	0	0	0	0	
2102	0	103	1252	28	1988	1075	0	0	0	0	0	0	0	0	0	
2103	0	108	1230	28	1990	1076	0	0	0	0	0	0	0	0	0	
2104	0	128	1227	29	1956	1077	0	0	0	0	0	0	0	0	0	
2105	0	98	1243	29	2020	1078	0	0	0	0	0	0	0	0	0	
2106	0	115	1223	28	1986	1079	0	0	0	0	0	0	0	0	0	
2107	0	145	1223	31	1974	1080	0	0	0	0	0	0	0	0	0	
2108	0	95	1199	28	1984	1081	0	0	0	0	0	0	0	0	0	
2109	0	132	1211	29	2006	1082	0	0	0	0	0	0	0	0	0	
2110	0	106	1233	28	1992	1083	0	0	0	0	0	0	0	0	0	
2111	0	108	1309	29	1942	1084	0	0	0	0	0	0	0	0	0	
2112	0	106	1222	29	1980	1085	0	0	0	0	0	0	0	0	0	
2113	0	140	1258	30	1979	1086	0	0	0	0	0	0	0	0	0	
2114	0	101	1234	30	1999	1087	0	0	0	0	0	0	0	0	0	
2115	0	73	1210	28	1998	1088	0	0	0	0	0	0	0	0	0	
2116	0	101	1260	29	1974	1089	0	0	0	0	0	0	0	0	0	
2117	0	90	1198	29	2021	1090	0	0	0	0	0	0	0	0	0	
2118	0	132	1229	29	1968	1091	0	0	0	0	0	0	0	0	0	
2119	0	93	1191	31	2002	1092	0	0	0	0	0	0	0	0	0	
2120	0	137	1241	30	1965	1093	0	0	0	0	0	0	0	0	0	
2121	0	91	1274	29	2001	1094	0	0	0	0	0	0	0	0	0	
2122	0	82	1226	28	1992	1095	0	0	0	0	0	0	0	0	0	
2123	0	124	1223	29	1987	1096	0	0	0	0	0	0	0	0	0	
2124	0	73	1212	29	2013	1097	0	0	0	0	0	0	0	0	0	
2125	0	127	1240	29	1990	1098	0	0	0	0	0	0	0	0	0	
2126	0	86	1237	30	1957	1099	0	0	0	0	0	0	0	0	0	
2127	0	105	1203	30	2008	1100	0	0	0	0	0	0	0	0	0	
2128	0	132	1251	30	2012	1101	0	0	0	0	0	0	0	0	0	
2129	0	127	1240	29	1946	1102	0	0	0	0	0	0	0	0	0	
2130	0	142	1219	29	1972	1103	0	0	0	0	0	0	0	0	0	
2131	0	144	1234	30	2002	1104	0	0	0	0	0	0	0	0	0	
2132	0	138	1235	29	1975	1105	0	0	0	0	0	0	0	0	0	
2133	0	132	1232	29	1948	1106	0	0	0	0	0	0	0	0	0	
2134	0	66	1188	28	1984	1107	0	0	0	0	0	0	0	0	0	
2135	0	119	1250	29	1987	1108	0	0	0	0	0	0	0	0	0	
2136	0	105	1264	30	1978	1109	0	0	0	0	0	0	0	0	0	
2137	0	80	1232	28	1991	1110	0	0	0	0	0	0	0	0	0	
2138	0	129	1232	28	1969	1111	0	0	0	0	0	0	0	0	0	
2139	0	131	1171	28	1991	1112	0	0	0	0	0	0	0	0	0	
2140	0	106	1205	29	1993	1113	0	0	0	0	0	0	0	0	0	
2141	0	100	1216	29	2020	1114	0	0	0	0	0	0	0	0	0	
2142	0	94	1194	28	1988	1115	0	0	0	0	0	0	0	0	0	
2143	0	98	1231	29	1942	1116	0	0	0	0	0	0	0	0	0	
2144	0	126	1204	29	1964	1117	0	0	0	0	0	0	0	0	0	
2145	0	163	1270	29	2009	1118	0	0	0	0	0	0	0	0	0	
2146	0	112	1256	28	2016	1119	0	0	0	0	0	0	0	0	0	
2147	0	114	1225	28	1974	1120	0	0	0	0	0	0	0	0	0	
2148	0	132	1222	29	1966	1121	0	0	0	0	0	0	0	0	0	
2149	0	125	1222	29	1952	1122	0	0	0	0	0	0	0	0	0	
2150	0	107	1216	28	1956	1123	0	0	0	0	0	0	0	0	0	
2151	0	78	1214	30	1989	1124	0	0	0	0	0	0	0	0	0	
2152	0	120	1234	29	1972	1125	0	0	0	0	0	0	0	0	0	
2153	0	126	1260	29	2006	1126	0	0	0	0	0	0	0	0	0	
2154	0	129	1218	29	1981	1127	0	0	0	0	0	0	0	0	0	
2155	0	129	1250	29	2022	1128	0	0	0	0	0	0	0	0	0	
2156	0	135	1250	29	1971	1129	0	0	0	0	0	0	0	0	0	
2157	0	99	1238	29	1965	1130	0	0	0	0	0	0	0	0	0	
2158	0	104	1242	28	1950	1131	0	0	0	0	0	0	0	0	0	
2159	0	105	1254	30	1960	1132	0	0	0	0	0	0	0	0	0	
2160	0	137	1229	28	1996	1133	0	0	0	0	0	0	0	0	0	
2161	0	82	1245	29	1995	1134	0	0	0	0	0	0	0	0	0	
2162	0	86	1220	28	1978	1135	0	0	0	0	0	0	0	0	0	
2163	0	127	1208	30	1976	1136	0	0	0	0	0	0	0	0	0	
2164	0	118	1206	29	1953	1137	0	0	0	0	0	0	0	0	0	
2165	0	141	1226	30	1968	1138	0	0	0	0	0	0	0	0	0	
2166	0	105	1217	29	2009	1139	0	0	0	0	0	0	0	0	0	
2167	0	87	1267	28	1951	1140	0	0	0	0	0	0	0	0	0	
2168	0	149	1219	28	1997	1141	0	0	0	0	0	0	0	0	0	
2169	0	90	1261	29	1949	1142	0	0	0	0	0	0	0	0	0	
2170	0	120	1222	29	1942	1143	0	0	0	0	0	0	0	0	0	
2171	0	174	1222	29	1990	1144	0	0	0	0	0	0	0	0	0	
2172	0	112	1235	28	1965	1145	0	0	0	0	0	0	0	0	0	
2173	0	137	1212	29	1984	1146	0	0	0	0	0	0	0	0	0	
2174	0	107	1187	30	1993	1147	0	0	0	0	0	0	0	0	0	
2175	0	72	1231	29	1954	1148	0	0	0	0	0	0	0	0	0	
2176	0	136	1207	29	1972	1149	0	0	0	0	0	0	0	0	0	
2177	0	116	1232	28	1999	1150	0	0	0	0	0	0	0	0	0	
2178	0	63	1233	29	1984	1151	0	0	0	0	0	0	0	0	0	
2179	0	154	1236	28	2011	1152	0	0	0	0	0	0	0	0	0	
2180	0	133	1220	28	1977	1153	0	0	0	0	0	0	0	0	0	
2181	0	100	1221	29	1954	1154	0	0	0	0	0	0	0	0	0	
2182	0	134	1227	28	1950	1155	0	0	0	0	0	0	0	0	0	
2183	0	155	1241	30	1986	1156	0	0	0	0	0	0	0	0	0	
2184	0	87	1231	28	1980	1157	0	0	0	0	0	0	0	0	0	
2185	0	88	1237	29	1994	1158	0	0	0	0	0	0	0	0	0	
2186	0	64	1199	29	1985	1159	0	0	0	0	0	0	0	0	0	
2187	0	124	1246	30	1994	1160	0	0	0	0	0	0	0	0	0	
2188	0	124	1258	30	1974	1161	0	0	0	0	0	0	0	0	0	
2189	0	139	1253	29	1999	1162	0	0	0	0	0	0	0	0	0	
2190	0	88	1223	29	2005	1163	0	0	0	0	0	0	0	0	0	
2191	0	91	1241	28	1965	1164	0	0	0	0	0	0	0	0	0	
2192	0	102	1225	29	1978	1165	0	0	0	0	0	0	0	0	0	
2193	0	122	1240	28	1962	1166	0	0	0	0	0	0	0	0	0	
2194	0	125	1252	29	1959	1167	0	0	0	0	0	0	0	0	0	
2195	0	103	1222	29	1985	1168	0	0	0	0	0	0	0	0	0	
2196	0	166	1238	29	1983	1169	0	0	0	0	0	0	0	0	0	
2197	0	141	1259	28	1971	1170	0	0	0	0	0	0	0	0	0	
2198	0	121	1222	30	1989	1171	0	0	0	0	0	0	0	0	0	
2199	0	79	1259	30	1977	1172	0	0	0	0	0	0	0	0	0	
2200	0	101	1197	29	1966	1173	0	0	0	0	0	0	0	0	0	
2201	0	131	1249	29	1962	1174	0	0	0	0	0	0	0	0	0	
2202	0	96	1210	29	2020	1175	0	0	0	0	0	0	0	0	0	
2203	0	108	1221	29	1978	1176	0	0	0	0	0	0	0	0	0	
2204	0	127	1235	29	1954	1177	0	0	0	0	0	0	0	0	0	
2205	0	151	1214	29	2020	1178	0	0	0	0	0	0	0	0	0	
2206	0	146	1176	29	1978	1179	0	0	0	0	0	0	0	0	0	
2207	0	136	1270	29	2047	1180	0	0	0	0	0	0	0	0	0	
2208	0	121	1206	29	1975	1181	0	0	0	0	0	0	0	0	0	
2209	0	131	1232	29	1992	1182	0	0	0	0	0	0	0	0	0	
2210	0	79	1218	28	1980	1183	0	0	0	0	0	0	0	0	0	
2211	0	102	1257	29	1952	1184	0	0	0	0	0	0	0	0	0	
2212	0	135	1192	30	1972	1185	0	0	0	0	0	0	0	0	0	
2213	0	117	1243	30	1963	1186	0	0	0	0	0	0	0	0	0	
2214	0	124	1251	28	1969	1187	0	0	0	0	0	0	0	0	0	
2215	0	77	1220	28	1984	1188	0	0	0	0	0	0	0	0	0	
2216	0	111	1238	29	1989	1189	0	0	0	0	0	0	0	0	0	
2217	0	164	1247	29	1993	1190	0	0	0	0	0	0	0	0	0	
2218	0	88	1246	27	1984	1191	0	0	0	0	0	0	0	0	0	
2219	0	146	1208	29	1968	1192	0	0	0	0	0	0	0	0	0	
2220	0	121	1250	29	1935	1193	0	0	0	0	0	0	0	0	0	
2221	0	102	1274	29	1958	1194	0	0	0	0	0	0	0	0	0	
2222	0	104	1259	29	2001	1195	0	0	0	0	0	0	0	0	0	
2223	0	127	1237	29	1997	1196	0	0	0	0	0	0	0	0	0	
2224	0	134	1203	29	1955	1197	0	0	0	0	0	0	0	0	0	
2225	0	111	1182	28	1995	1198	0	0	0	0	0	0	0	0	0	
2226	0	115	1241	28	1959	1199	0	0	0	0	0	0	0	0	0	
2227	0	115	1236	30	1989	1200	0	0	0	0	0	0	0	0	0	
2228	0	102	1252	29	1979	1201	0	0	0	0	0	0	0	0	0	
2229	0	82	1240	29	1990	1202	0	0	0	0	0	0	0	0	0	
2230	0	114	1183	30	1982	1203	0	0	0	0	0	0	0	0	0	
2231	0	146	1245	29	1997	1204	0	0	0	0	0	0	0	0	0	
2232	0	147	1226	29	2004	1205	0	0	0	0	0	0	0	0	0	
2233	0	103	1168	30	2000	1206	0	0	0	0	0	0	0	0	0	
2234	0	138	1220	29	1942	1207	0	0	0	0	0	0	0	0	0	
2235	0	129	1231	29	1994	1208	0	0	0	0	0	0	0	0	0	
2236	0	108	1172	29	1985	1209	0	0	0	0	0	0	0	0	0	
2237	0	106	1197	29	1953	1210	0	0	0	0	0	0	0	0	0	
2238	0	166	1214	28	2002	1211	0	0	0	0	0	0	0	0	0	
2239	0	152	1223	29	1988	1212	0	0	0	0	0	0	0	0	0	
2240	0	128	1252	29	1941	1213	0	0	0	0	0	0	0	0	0	
2241	0	140	1249	28	2004	1214	0	0	0	0	0	0	0	0	0	
2242	0	155	1201	29	1970	1215	0	0	0	0	0	0	0	0	0	
2243	0	77	1238	29	1982	1216	0	0	0	0	0	0	0	0	0	
2244	0	90	1236	28	1967	1217	0	0	0	0	0	0	0	0	0	
2245	0	102	1236	30	1996	1218	0	0	0	0	0	0	0	0	0	
2246	0	124	1205	28	2024	1219	0	0	0	0	0	0	0	0	0	
2247	0	70	1200	29	1985	1220	0	0	0	0	0	0	0	0	0	
2248	0	121	1224	29	1986	1221	0	0	0	0	0	0	0	0	0	
2249	0	96	1212	29	2002	1222	0	0	0	0	0	0	0	0	0	
2250	0	156	1213	29	1906	1223	0	0	0	0	0	0	0	0	0	
2251	0	132	1250	29	1999	1224	0	0	0	0	0	0	0	0	0	
2252	0	132	1250	28	1969	1225	0	0	0	0	0	0	0	0	0	
2253	0	111	1227	28	1994	1226	0	0	0	0	0	0	0	0	0	
2254	0	108	1259	29	1972	1227	0	0	0	0	0	0	0	0	0	
2255	0	127	1244	29	1967	1228	0	0	0	0	0	0	0	0	0	
2256	0	97	1221	29	1980	1229	0	0	0	0	0	0	0	0	0	
2257	0	142	1274	29	1990	1230	0	0	0	0	0	0	0	0	0	
2258	0	127	1228	29	1988	1231	0	0	0	0	0	0	0	0	0	
2259	0	88	1242	30	1970	1232	0	0	0	0	0	0	0	0	0	
2260	0	108	1253	29	1956	1233	0	0	0	0	0	0	0	0	0	
2261	0	119	1186	29	1980	1234	0	0	0	0	0	0	0	0	0	
2262	0	112	1220	30	1994	1235	0	0	0	0	0	0	0	0	0	
2263	0	115	1225	29	1982	1236	0	0	0	0	0	0	0	0	0	
2264	0	97	1253	30	1972	1237	0	0	0	0	0	0	0	0	0	
2265	0	119	1284	29	1985	1238	0	0	0	0	0	0	0	0	0	
2266	0	132	1244	29	2001	1239	0	0	0	0	0	0	0	0	0	
2267	0	127	1224	29	2003	1240	0	0	0	0	0	0	0	0	0	
2268	0	165	1241	28	1971	1241	0	0	0	0	0	0	0	0	0	
2269	0	99	1245	30	1980	1242	0	0	0	0	0	0	0	0	0	
2270	0	61	1212	29	1980	1243	0	0	0	0	0	0	0	0	0	
2271	0	155	1198	28	1988	1244	0	0	0	0	0	0	0	0	0	
2272	0	132	1233	29	1997	1245	0	0	0	0	0	0	0	0	0	
2273	0	82	1249	30	1979	1246	0	0	0	0	0	0	0	0	0	
2274	0	92	1229	28	1970	1247	0	0	0	0	0	0	0	0	0	
2275	0	131	1250	29	1957	1248	0	0	0	0	0	0	0	0	0	
2276	0	134	1220	29	2009	1249	0	0	0	0	0	0	0	0	0	
2277	0	116	1246	28	1956	1250	0	0	0	0	0	0	0	0	0	
2278	0	108	1216	30	2013	1251	0	0	0	0	0	0	0	0	0	
2279	0	65	1285	28	1992	1252	0	0	0	0	0	0	0	0	0	
2280	0	119	1233	29	1982	1253	0	0	0	0	0	0	0	0	0	
2281	0	114	1231	30	1976	1254	0	0	0	0	0	0	0	0	0	
2282	0	114	1232	29	2038	1255	0	0	0	0	0	0	0	0	0	
2283	0	128	1236	29	2003	1256	0	0	0	0	0	0	0	0	0	
2284	0	99	1248	28	2000	1257	0	0	0	0	0	0	0	0	0	
2285	0	114	1251	28	2020	1258	0	0	0	0	0	0	0	0	0	
2286	0	159	1206	29	1952	1259	0	0	0	0	0	0	0	0	0	
2287	0	111	1220	28	1966	1260	0	0	0	0	0	0	0	0	0	
2288	0	126	1222	29	1951	1261	0	0	0	0	0	0	0	0	0	
2289	0	132	1241	30	2013	1262	0	0	0	0	0	0	0	0	0	
2290	0	100	1262	28	1984	1263	0	0	0	0	0	0	0	0	0	
2291	0	128	1235	29	1944	1264	0	0	0	0	0	0	0	0	0	
2292	0	114	1227	30	1973	1265	0	0	0	0	0	0	0	0	0	
2293	0	130	1229	30	2003	1266	0	0	0	0	0	0	0	0	0	
2294	0	82	1219	28	1955	1267	0	0	0	0	0	0	0	0	0	
2295	0	110	1182	30	1978	1268	0	0	0	0	0	0	0	0	0	
2296	0	127	1223	31	2007	1269	0	0	0	0	0	0	0	0	0	
2297	0	133	1204	29	1951	1270	0	0	0	0	0	0	0	0	0	
2298	0	124	1272	29	2019	1271	0	0	0	0	0	0	0	0	0	
2299	0	144	1230	28	1946	1272	0	0	0	0	0	0	0	0	0	
2300	0	138	1221	29	1993	1273	0	0	0	0	0	0	0	0	0	
2301	0	102	1232	28	1964	1274	0	0	0	0	0	0	0	0	0	
2302	0	117	1231	29	1954	1275	0	0	0	0	0	0	0	0	0	
2303	0	134	1240	28	1982	1276	0	0	0	0	0	0	0	0	0	
2304	0	118	1251	28	1954	1277	0	0	0	0	0	0	0	0	0	
2305	0	81	1257	29	1954	1278	0	0	0	0	0	0	0	0	0	
2306	0	127	1237	30	1988	1279	0	0	0	0	0	0	0	0	0	
2307	0	98	1205	30	1966	1280	0	0	0	0	0	0	0	0	0	
2308	0	107	1217	30	2004	1281	0	0	0	0	0	0	0	0	0	
2309	0	98	1240	29	1991	1282	0	0	0	0	0	0	0	0	0	
2310	0	119	1238	28	1984	1283	0	0	0	0	0	0	0	0	0	
2311	0	150	1214	30	1977	1284	0	0	0	0	0	0	0	0	0	
2312	0	88	1205	30	1955	1285	0	0	0	0	0	0	0	0	0	
2313	0	85	1289	29	2002	1286	0	0	0	0	0	0	0	0	0	
2314	0	131	1204	28	1967	1287	0	0	0	0	0	0	0	0	0	
2315	0	108	1213	29	1989	1288	0	0	0	0	0	0	0	0	0	
2316	0	122	1255	29	1960	1289	0	0	0	0	0	0	0	0	0	
2317	0	124	1254	29	1930	1290	0	0	0	0	0	0	0	0	0	
2318	0	140	1190	28	1956	1291	0	0	0	0	0	0	0	0	0	
2319	0	130	1273	29	1953	1292	0	0	0	0	0	0	0	0	0	
2320	0	128	1204	28	1944	1293	0	0	0	0	0	0	0	0	0	
2321	0	56	1246	28	1948	1294	0	0	0	0	0	0	0	0	0	
2322	0	140	1231	30	1960	1295	0	0	0	0	0	0	0	0	0	
2323	0	67	1230	29	1935	1296	0	0	0	0	0	0	0	0	0	
2324	0	132	1255	29	1997	1297	0	0	0	0	0	0	0	0	0	
2325	0	115	1203	28	1992	1298	0	0	0	0	0	0	0	0	0	
2326	0	153	1248	29	1967	1299	0	0	0	0	0	0	0	0	0	
2327	0	101	1255	28	1972	1300	0	0	0	0	0	0	0	0	0	
2328	0	182	1253	30	2004	1301	0	0	0	0	0	0	0	0	0	
2329	0	106	1230	29	1980	1302	0	0	0	0	0	0	0	0	0	
2330	0	141	1210	29	1964	1303	0	0	0	0	0	0	0	0	0	
2331	0	130	1245	28	1987	1304	0	0	0	0	0	0	0	0	0	
2332	0	108	1241	28	1950	1305	0	0	0	0	0	0	0	0	0	
2333	0	129	1215	29	1988	1306	0	0	0	0	0	0	0	0	0	
2334	0	126	1262	30	1976	1307	0	0	0	0	0	0	0	0	0	
2335	0	148	1228	29	2014	1308	0	0	0	0	0	0	0	0	0	
2336	0	147	1219	30	2006	1309	0	0	0	0	0	0	0	0	0	
2337	0	107	1204	29	1968	1310	0	0	0	0	0	0	0	0	0	
2338	0	92	1220	28	2019	1311	0	0	0	0	0	0	0	0	0	
2339	0	111	1244	29	1992	1312	0	0	0	0	0	0	0	0	0	
2340	0	105	1266	28	1980	1313	0	0	0	0	0	0	0	0	0	
2341	0	113	1262	30	1960	1314	0	0	0	0	0	0	0	0	0	
2342	0	121	1242	30	1974	1315	0	0	0	0	0	0	0	0	0	
2343	0	133	1212	30	1974	1316	0	0	0	0	0	0	0	0	0	
2344	0	82	1200	30	1959	1317	0	0	0	0	0	0	0	0	0	
2345	0	113	1248	29	1941	1318	0	0	0	0	0	0	0	0	0	
2346	0	65	1199	30	1986	1319	0	0	0	0	0	0	0	0	0	
2347	0	86	1220	30	1982	1320	0	0	0	0	0	0	0	0	0	
2348	0	79	1225	29	2005	1321	0	0	0	0	0	0	0	0	0	
2349	0	94	1204	29	1972	1322	0	0	0	0	0	0	0	0	0	
2350	0	109	1233	29	1990	1323	0	0	0	0	0	0	0	0	0	
2351	0	91	1246	29	1996	1324	0	0	0	0	0	0	0	0	0	
2352	0	87	1216	30	1980	1325	0	0	0	0	0	0	0	0	0	
2353	0	119	1216	29	2005	1326	0	0	0	0	0	0	0	0	0	
2354	0	121	1211	28	1966	1327	0	0	0	0	0	0	0	0	0	
2355	0	87	1216	29	1954	1328	0	0	0	0	0	0	0	0	0	
2356	0	140	1225	30	1979	1329	0	0	0	0	0	0	0	0	0	
2357	0	101	1218	29	1993	1330	0	0	0	0	0	0	0	0	0	
2358	0	105	1253	29	1950	1331	0	0	0	0	0	0	0	0	0	
2359	0	98	1245	29	1966	1332	0	0	0	0	0	0	0	0	0	
2360	0	114	1255	28	1928	1333	0	0	0	0	0	0	0	0	0	
2361	0	123	1241	27	1938	1334	0	0	0	0	0	0	0	0	0	
2362	0	93	1224	29	1996	1335	0	0	0	0	0	0	0	0	0	
2363	0	111	1246	30	1973	1336	0	0	0	0	0	0	0	0	0	
2364	0	152	1235	29	1977	1337	0	0	0	0	0	0	0	0	0	
2365	0	107	1188	30	2031	1338	0	0	0	0	0	0	0	0	0	
2366	0	84	1216	28	2010	1339	0	0	0	0	0	0	0	0	0	
2367	0	59	1235	29	2004	1340	0	0	0	0	0	0	0	0	0	
2368	0	116	1196	29	1990	1341	0	0	0	0	0	0	0	0	0	
2369	0	104	1239	29	1984	1342	0	0	0	0	0	0	0	0	0	
2370	0	113	1182	30	2020	1343	0	0	0	0	0	0	0	0	0	
2371	0	125	1221	30	1996	1344	0	0	0	0	0	0	0	0	0	
2372	0	112	1246	30	1996	1345	0	0	0	0	0	0	0	0	0	
2373	0	125	1219	30	1957	1346	0	0	0	0	0	0	0	0	0	
2374	0	104	1234	29	1978	1347	0	0	0	0	0	0	0	0	0	
2375	0	54	1212	28	2023	1348	0	0	0	0	0	0	0	0	0	
2376	0	82	1170	28	2015	1349	0	0	0	0	0	0	0	0	0	
2377	0	146	1223	29	1996	1350	0	0	0	0	0	0	0	0	0	
2378	0	114	1221	30	1971	1351	0	0	0	0	0	0	0	0	0	
2379	0	108	1189	29	1924	1352	0	0	0	0	0	0	0	0	0	
2380	0	166	1254	29	1947	1353	0	0	0	0	0	0	0	0	0	
2381	0	96	1222	30	1967	1354	0	0	0	0	0	0	0	0	0	
2382	0	115	1220	29	1987	1355	0	0	0	0	0	0	0	0	0	
2383	0	93	1218	30	1993	1356	0	0	0	0	0	0	0	0	0	
2384	0	88	1216	29	1973	1357	0	0	0	0	0	0	0	0	0	
2385	0	152	1267	29	2013	1358	0	0	0	0	0	0	0	0	0	
2386	0	116	1211	29	1945	1359	0	0	0	0	0	0	0	0	0	
2387	0	115	1231	29	1936	1360	0	0	0	0	0	0	0	0	0	
2388	0	89	1203	28	1945	1361	0	0	0	0	0	0	0	0	0	
2389	0	140	1248	28	1982	1362	0	0	0	0	0	0	0	0	0	
2390	0	136	1201	30	1974	1363	0	0	0	0	0	0	0	0	0	
2391	0	148	1244	28	1979	1364	0	0	0	0	0	0	0	0	0	
2392	0	116	1222	30	1977	1365	0	0	0	0	0	0	0	0	0	
2393	0	127	1248	29	1981	1366	0	0	0	0	0	0	0	0	0	
2394	0	84	1219	29	1987	1367	0	0	0	0	0	0	0	0	0	
2395	0	149	1238	29	1984	1368	0	0	0	0	0	0	0	0	0	
2396	0	98	1225	29	1970	1369	0	0	0	0	0	0	0	0	0	
2397	0	96	1248	30	1984	1370	0	0	0	0	0	0	0	0	0	
2398	0	124	1225	30	1956	1371	0	0	0	0	0	0	0	0	0	
2399	0	113	1223	28	1990	1372	0	0	0	0	0	0	0	0	0	
2400	0	146	1252	28	1998	1373	0	0	0	0	0	0	0	0	0	
2401	0	106	1239	28	1982	1374	0	0	0	0	0	0	0	0	0	
2402	0	137	1246	29	1980	1375	0	0	0	0	0	0	0	0	0	
2403	0	146	1176	28	2036	1376	0	0	0	0	0	0	0	0	0	
2404	0	157	1249	28	1950	1377	0	0	0	0	0	0	0	0	0	
2405	0	102	1251	29	1965	1378	0	0	0	0	0	0	0	0	0	
2406	0	135	1221	29	1990	1379	0	0	0	0	0	0	0	0	0	
2407	0	128	1179	29	1984	1380	0	0	0	0	0	0	0	0	0	
2408	0	113	1258	28	1990	1381	0	0	0	0	0	0	0	0	0	
2409	0	101	1212	28	2021	1382	0	0	0	0	0	0	0	0	0	
2410	0	141	1258	30	1980	1383	0	0	0	0	0	0	0	0	0	
2411	0	134	1173	30	1953	1384	0	0	0	0	0	0	0	0	0	
2412	0	119	1221	28	1985	1385	0	0	0	0	0	0	0	0	0	
2413	0	139	1257	30	1997	1386	0	0	0	0	0	0	0	0	0	
2414	0	131	1216	30	1958	1387	0	0	0	0	0	0	0	0	0	
2415	0	114	1179	29	1999	1388	0	0	0	0	0	0	0	0	0	
2416	0	132	1221	30	2008	1389	0	0	0	0	0	0	0	0	0	
2417	0	119	1224	30	1961	1390	0	0	0	0	0	0	0	0	0	
2418	0	134	1240	29	1972	1391	0	0	0	0	0	0	0	0	0	
2419	0	116	1210	29	1951	1392	0	0	0	0	0	0	0	0	0	
2420	0	130	1204	29	1932	1393	0	0	0	0	0	0	0	0	0	
2421	0	86	1245	28	1957	1394	0	0	0	0	0	0	0	0	0	
2422	0	123	1266	29	1983	1395	0	0	0	0	0	0	0	0	0	
2423	0	115	1180	29	2005	1396	0	0	0	0	0	0	0	0	0	
2424	0	93	1192	31	1986	1397	0	0	0	0	0	0	0	0	0	
2425	0	133	1230	29	1987	1398	0	0	0	0	0	0	0	0	0	
2426	0	137	1235	28	1987	1399	0	0	0	0	0	0	0	0	0	
2427	0	128	1269	29	1988	1400	0	0	0	0	0	0	0	0	0	
2428	0	116	1217	28	1970	1401	0	0	0	0	0	0	0	0	0	
2429	0	129	1220	29	1960	1402	0	0	0	0	0	0	0	0	0	
2430	0	86	1241	28	1945	1403	0	0	0	0	0	0	0	0	0	
2431	0	117	1227	30	1977	1404	0	0	0	0	0	0	0	0	0	
2432	0	113	1267	30	2032	1405	0	0	0	0	0	0	0	0	0	
2433	0	117	1230	28	1975	1406	0	0	0	0	0	0	0	0	0	
2434	0	106	1264	28	1966	1407	0	0	0	0	0	0	0	0	0	
2435	0	92	1220	28	2040	1408	0	0	0	0	0	0	0	0	0	
2436	0	120	1202	29	1989	1409	0	0	0	0	0	0	0	0	0	
2437	0	116	1239	30	1969	1410	0	0	0	0	0	0	0	0	0	
2438	0	121	1211	28	1942	1411	0	0	0	0	0	0	0	0	0	
2439	0	143	1202	29	2015	1412	0	0	0	0	0	0	0	0	0	
2440	0	133	1233	30	1996	1413	0	0	0	0	0	0	0	0	0	
2441	0	106	1228	29	2012	1414	0	0	0	0	0	0	0	0	0	
2442	0	159	1240	29	1953	1415	0	0	0	0	0	0	0	0	0	
2443	0	96	1263	29	1979	1416	0	0	0	0	0	0	0	0	0	
2444	0	142	1215	29	1942	1417	0	0	0	0	0	0	0	0	0	
2445	0	121	1232	29	1963	1418	0	0	0	0	0	0	0	0	0	
2446	0	112	1260	29	1957	1419	0	0	0	0	0	0	0	0	0	
2447	0	126	1220	28	1971	1420	0	0	0	0	0	0	0	0	0	
2448	0	126	1255	29	1986	1421	0	0	0	0	0	0	0	0	0	
2449	0	117	1226	29	2014	1422	0	0	0	0	0	0	0	0	0	
2450	0	108	1227	29	1988	1423	0	0	0	0	0	0	0	0	0	
2451	0	121	1213	28	1974	1424	0	0	0	0	0	0	0	0	0	
2452	0	122	1200	31	1998	1425	0	0	0	0	0	0	0	0	0	
2453	0	120	1265	29	1980	1426	0	0	0	0	0	0	0	0	0	
2454	0	85	1252	28	1977	1427	0	0	0	0	0	0	0	0	0	
2455	0	115	1242	29	1954	1428	0	0	0	0	0	0	0	0	0	
2456	0	150	1212	30	1956	1429	0	0	0	0	0	0	0	0	0	
2457	0	105	1204	30	1963	1430	0	0	0	0	0	0	0	0	0	
2458	0	90	1200	30	1985	1431	0	0	0	0	0	0	0	0	0	
2459	0	97	1220	30	1985	1432	0	0	0	0	0	0	0	0	0	
2460	0	70	1242	29	1985	1433	0	0	0	0	0	0	0	0	0	
2461	0	77	1213	28	1972	1434	0	0	0	0	0	0	0	0	0	
2462	0	98	1222	32	1991	1435	0	0	0	0	0	0	0	0	0	
2463	0	110	1218	29	2016	1436	0	0	0	0	0	0	0	0	0	
2464	0	136	1181	29	2040	1437	0	0	0	0	0	0	0	0	0	
2465	0	122	1261	29	1952	1438	0	0	0	0	0	0	0	0	0	
2466	0	106	1253	29	1984	1439	0	0	0	0	0	0	0	0	0	
2467	0	94	1229	30	1976	1440	0	0	0	0	0	0	0	0	0	
2468	0	100	1183	28	1960	1441	0	0	0	0	0	0	0	0	0	
2469	0	91	1274	29	2002	1442	0	0	0	0	0	0	0	0	0	
2470	0	103	1234	30	1977	1443	0	0	0	0	0	0	0	0	0	
2471	0	124	1230	29	2012	1444	0	0	0	0	0	0	0	0	0	
2472	0	80	1233	28	2022	1445	0	0	0	0	0	0	0	0	0	
2473	0	118	1210	29	2030	1446	0	0	0	0	0	0	0	0	0	
2474	0	125	1188	30	1975	1447	0	0	0	0	0	0	0	0	0	
2475	0	157	1221	29	1983	1448	0	0	0	0	0	0	0	0	0	
2476	0	70	1196	29	1954	1449	0	0	0	0	0	0	0	0	0	
2477	0	148	1233	28	1936	1450	0	0	0	0	0	0	0	0	0	
2478	0	132	1253	30	1985	1451	0	0	0	0	0	0	0	0	0	
2479	0	84	1238	28	2000	1452	0	0	0	0	0	0	0	0	0	
2480	0	81	1256	28	1980	1453	0	0	0	0	0	0	0	0	0	
2481	0	152	1219	30	1991	1454	0	0	0	0	0	0	0	0	0	
2482	0	114	1220	28	1983	1455	0	0	0	0	0	0	0	0	0	
2483	0	100	1220	29	1993	1456	0	0	0	0	0	0	0	0	0	
2484	0	121	1227	29	1997	1457	0	0	0	0	0	0	0	0	0	
2485	0	82	1244	30	1996	1458	0	0	0	0	0	0	0	0	0	
2486	0	87	1189	29	1957	1459	0	0	0	0	0	0	0	0	0	
2487	0	131	1205	28	1988	1460	0	0	0	0	0	0	0	0	0	
2488	0	128	1267	30	1951	1461	0	0	0	0	0	0	0	0	0	
2489	0	75	1246	29	2010	1462	0	0	0	0	0	0	0	0	0	
2490	0	92	1200	29	1981	1463	0	0	0	0	0	0	0	0	0	
2491	0	91	1218	29	1996	1464	0	0	0	0	0	0	0	0	0	
2492	0	128	1242	29	1966	1465	0	0	0	0	0	0	0	0	0	
2493	0	121	1238	29	1988	1466	0	0	0	0	0	0	0	0	0	
2494	0	110	1247	29	1971	1467	0	0	0	0	0	0	0	0	0	
2495	0	105	1245	28	1987	1468	0	0	0	0	0	0	0	0	0	
2496	0	101	1240	29	1958	1469	0	0	0	0	0	0	0	0	0	
2497	0	144	1242	29	1948	1470	0	0	0	0	0	0	0	0	0	
2498	0	116	1205	29	1960	1471	0	0	0	0	0	0	0	0	0	
2499	0	89	1245	29	1955	1472	0	0	0	0	0	0	0	0	0	
2500	0	129	1241	29	1982	1473	0	0	0	0	0	0	0	0	0	
2501	0	138	1263	28	1993	1474	0	0	0	0	0	0	0	0	0	
2502	0	103	1204	29	1955	1475	0	0	0	0	0	0	0	0	0	
2503	0	146	1230	28	1957	1476	0	0	0	0	0	0	0	0	0	
2504	0	75	1241	29	2004	1477	0	0	0	0	0	0	0	0	0	
2505	0	126	1209	29	1952	1478	0	0	0	0	0	0	0	0	0	
2506	0	104	1199	30	1989	1479	0	0	0	0	0	0	0	0	0	
2507	0	79	1258	29	1964	1480	0	0	0	0	0	0	0	0	0	
2508	0	85	1229	29	1989	1481	0	0	0	0	0	0	0	0	0	
2509	0	107	1214	29	2006	1482	0	0	0	0	0	0	0	0	0	
2510	0	121	1272	29	1930	1483	0	0	0	0	0	0	0	0	0	
2511	0	115	1287	30	1958	1484	0	0	0	0	0	0	0	0	0	
2512	0	97	1262	28	1992	1485	0	0	0	0	0	0	0	0	0	
2513	0	96	1188	30	1986	1486	0	0	0	0	0	0	0	0	0	
2514	0	140	1208	29	1994	1487	0	0	0	0	0	0	0	0	0	
2515	0	85	1290	30	2000	1488	0	0	0	0	0	0	0	0	0	
2516	0	139	1234	29	1978	1489	0	0	0	0	0	0	0	0	0	
2517	0	134	1253	29	1989	1490	0	0	0	0	0	0	0	0	0	
2518	0	134	1221	30	2018	1491	0	0	0	0	0	0	0	0	0	
2519	0	84	1192	30	1960	1492	0	0	0	0	0	0	0	0	0	
2520	0	70	1261	28	1978	1493	0	0	0	0	0	0	0	0	0	
2521	0	127	1235	30	1975	1494	0	0	0	0	0	0	0	0	0	
2522	0	85	1255	29	2017	1495	0	0	0	0	0	0	0	0	0	
2523	0	106	1206	28	1952	1496	0	0	0	0	0	0	0	0	0	
2524	0	113	1223	29	1985	1497	0	0	0	0	0	0	0	0	0	
2525	0	174	1217	29	1994	1498	0	0	0	0	0	0	0	0	0	
2526	0	141	1256	28	1992	1499	0	0	0	0	0	0	0	0	0	
2527	0	100	1244	29	1983	1500	0	0	0	0	0	0	0	0	0	
2528	0	116	1260	31	1976	1501	0	0	0	0	0	0	0	0	0	
2529	0	127	1273	29	1959	1502	0	0	0	0	0	0	0	0	0	
2530	0	109	1225	28	1969	1503	0	0	0	0	0	0	0	0	0	
2531	0	113	1243	29	2014	1504	0	0	0	0	0	0	0	0	0	
2532	0	133	1240	30	2007	1505	0	0	0	0	0	0	0	0	0	
2533	0	118	1217	28	1975	1506	0	0	0	0	0	0	0	0	0	
2534	0	105	1229	28	1982	1507	0	0	0	0	0	0	0	0	0	
2535	0	96	1234	28	1988	1508	0	0	0	0	0	0	0	0	0	
2536	0	111	1290	29	2001	1509	0	0	0	0	0	0	0	0	0	
2537	0	114	1248	30	1998	1510	0	0	0	0	0	0	0	0	0	
2538	0	110	1244	30	1921	1511	0	0	0	0	0	0	0	0	0	
2539	0	123	1216	30	2008	1512	0	0	0	0	0	0	0	0	0	
2540	0	100	1214	29	1966	1513	0	0	0	0	0	0	0	0	0	
2541	0	102	1205	29	1964	1514	0	0	0	0	0	0	0	0	0	
2542	0	100	1227	29	1996	1515	0	0	0	0	0	0	0	0	0	
2543	0	135	1244	28	1917	1516	0	0	0	0	0	0	0	0	0	
2544	0	85	1219	29	1951	1517	0	0	0	0	0	0	0	0	0	
2545	0	137	1236	28	1969	1518	0	0	0	0	0	0	0	0	0	
2546	0	139	1225	29	1967	1519	0	0	0	0	0	0	0	0	0	
2547	0	140	1241	30	1934	1520	0	0	0	0	0	0	0	0	0	
2548	0	107	1231	29	2005	1521	0	0	0	0	0	0	0	0	0	
2549	0	94	1232	29	2020	1522	0	0	0	0	0	0	0	0	0	
2550	0	130	1228	30	1956	1523	0	0	0	0	0	0	0	0	0	
2551	0	116	1239	30	1952	1524	0	0	0	0	0	0	0	0	0	
2552	0	103	1228	30	1987	1525	0	0	0	0	0	0	0	0	0	
2553	0	132	1227	29	2018	1526	0	0	0	0	0	0	0	0	0	
2554	0	87	1240	28	1975	1527	0	0	0	0	0	0	0	0	0	
2555	0	132	1203	29	1961	1528	0	0	0	0	0	0	0	0	0	
2556	0	130	1220	28	1980	1529	0	0	0	0	0	0	0	0	0	
2557	0	95	1279	29	1954	1530	0	0	0	0	0	0	0	0	0	
2558	0	100	1188	28	1982	1531	0	0	0	0	0	0	0	0	0	
2559	0	98	1230	29	1965	1532	0	0	0	0	0	0	0	0	0	
2560	0	125	1241	28	1999	1533	0	0	0	0	0	0	0	0	0	
2561	0	132	1264	30	2008	1534	0	0	0	0	0	0	0	0	0	
2562	0	138	1207	29	1958	1535	0	0	0	0	0	0	0	0	0	
2563	0	106	1240	29	1970	1536	0	0	0	0	0	0	0	0	0	
2564	0	120	1220	30	1981	1537	0	0	0	0	0	0	0	0	0	
2565	0	103	1237	29	1986	1538	0	0	0	0	0	0	0	0	0	
2566	0	105	1227	29	1960	1539	0	0	0	0	0	0	0	0	0	
2567	0	106	1226	29	1958	1540	0	0	0	0	0	0	0	0	0	
2568	0	100	1228	28	1987	1541	0	0	0	0	0	0	0	0	0	
2569	0	129	1181	29	1965	1542	0	0	0	0	0	0	0	0	0	
2570	0	130	1204	29	1980	1543	0	0	0	0	0	0	0	0	0	
2571	0	154	1220	28	1985	1544	0	0	0	0	0	0	0	0	0	
2572	0	150	1215	30	1994	1545	0	0	0	0	0	0	0	0	0	
2573	0	110	1233	30	2005	1546	0	0	0	0	0	0	0	0	0	
2574	0	140	1201	29	2000	1547	0	0	0	0	0	0	0	0	0	
2575	0	98	1272	30	1991	1548	0	0	0	0	0	0	0	0	0	
2576	0	68	1233	30	1969	1549	0	0	0	0	0	0	0	0	0	
2577	0	111	1258	30	2002	1550	0	0	0	0	0	0	0	0	0	
2578	0	131	1217	28	1956	1551	0	0	0	0	0	0	0	0	0	
2579	0	102	1239	29	1979	1552	0	0	0	0	0	0	0	0	0	
2580	0	113	1252	29	1976	1553	0	0	0	0	0	0	0	0	0	
2581	0	123	1235	29	1953	1554	0	0	0	0	0	0	0	0	0	
2582	0	106	1224	29	1976	1555	0	0	0	0	0	0	0	0	0	
2583	0	70	1220	30	2009	1556	0	0	0	0	0	0	0	0	0	
2584	0	145	1226	29	1998	1557	0	0	0	0	0	0	0	0	0	
2585	0	132	1174	28	1963	1558	0	0	0	0	0	0	0	0	0	
2586	0	95	1257	30	1969	1559	0	0	0	0	0	0	0	0	0	
2587	0	139	1238	28	1966	1560	0	0	0	0	0	0	0	0	0	
2588	0	110	1240	28	2008	1561	0	0	0	0	0	0	0	0	0	
2589	0	89	1220	31	2014	1562	0	0	0	0	0	0	0	0	0	
2590	0	112	1170	30	1953	1563	0	0	0	0	0	0	0	0	0	
2591	0	107	1251	30	1939	1564	0	0	0	0	0	0	0	0	0	
2592	0	133	1228	29	1967	1565	0	0	0	0	0	0	0	0	0	
2593	0	89	1229	28	1928	1566	0	0	0	0	0	0	0	0	0	
2594	0	71	1227	30	1986	1567	0	0	0	0	0	0	0	0	0	
2595	0	148	1241	30	2010	1568	0	0	0	0	0	0	0	0	0	
2596	0	104	1222	28	2022	1569	0	0	0	0	0	0	0	0	0	
2597	0	118	1198	29	1965	1570	0	0	0	0	0	0	0	0	0	
2598	0	144	1176	29	1985	1571	0	0	0	0	0	0	0	0	0	
2599	0	124	1210	30	1985	1572	0	0	0	0	0	0	0	0	0	
2600	0	131	1189	29	2012	1573	0	0	0	0	0	0	0	0	0	
2601	0	125	1202	29	1980	1574	0	0	0	0	0	0	0	0	0	
2602	0	76	1194	29	2036	1575	0	0	0	0	0	0	0	0	0	
2603	0	106	1233	29	1989	1576	0	0	0	0	0	0	0	0	0	
2604	0	100	1223	29	1965	1577	0	0	0	0	0	0	0	0	0	
2605	0	125	1220	30	1978	1578	0	0	0	0	0	0	0	0	0	
2606	0	131	1253	29	1950	1579	0	0	0	0	0	0	0	0	0	
2607	0	74	1232	30	1973	1580	0	0	0	0	0	0	0	0	0	
2608	0	92	1239	29	1985	1581	0	0	0	0	0	0	0	0	0	
2609	0	86	1238	29	1970	1582	0	0	0	0	0	0	0	0	0	
2610	0	91	1240	29	2012	1583	0	0	0	0	0	0	0	0	0	
2611	0	145	1270	29	1940	1584	0	0	0	0	0	0	0	0	0	
2612	0	81	1263	29	1986	1585	0	0	0	0	0	0	0	0	0	
2613	0	119	1235	29	1958	1586	0	0	0	0	0	0	0	0	0	
2614	0	108	1226	28	1990	1587	0	0	0	0	0	0	0	0	0	
2615	0	150	1190	31	1979	1588	0	0	0	0	0	0	0	0	0	
2616	0	115	1194	29	1988	1589	0	0	0	0	0	0	0	0	0	
2617	0	87	1203	30	2006	1590	0	0	0	0	0	0	0	0	0	
2618	0	135	1209	29	1997	1591	0	0	0	0	0	0	0	0	0	
2619	0	102	1267	29	1937	1592	0	0	0	0	0	0	0	0	0	
2620	0	164	1190	28	2022	1593	0	0	0	0	0	0	0	0	0	
2621	0	89	1239	29	1975	1594	0	0	0	0	0	0	0	0	0	
2622	0	92	1192	29	1956	1595	0	0	0	0	0	0	0	0	0	
2623	0	116	1218	30	1989	1596	0	0	0	0	0	0	0	0	0	
2624	0	151	1244	29	1957	1597	0	0	0	0	0	0	0	0	0	
2625	0	96	1213	29	1988	1598	0	0	0	0	0	0	0	0	0	
2626	0	162	1259	30	2009	1599	0	0	0	0	0	0	0	0	0	
2627	0	131	1201	29	1949	1600	0	0	0	0	0	0	0	0	0	
2628	0	95	1258	30	2019	1601	0	0	0	0	0	0	0	0	0	
2629	0	78	1196	29	1959	1602	0	0	0	0	0	0	0	0	0	
2630	0	94	1223	29	1925	1603	0	0	0	0	0	0	0	0	0	
2631	0	134	1205	29	1981	1604	0	0	0	0	0	0	0	0	0	
2632	0	121	1257	30	1946	1605	0	0	0	0	0	0	0	0	0	
2633	0	125	1220	30	2017	1606	0	0	0	0	0	0	0	0	0	
2634	0	142	1220	29	1959	1607	0	0	0	0	0	0	0	0	0	
2635	0	75	1213	29	1998	1608	0	0	0	0	0	0	0	0	0	
2636	0	103	1242	29	1981	1609	0	0	0	0	0	0	0	0	0	
2637	0	114	1193	30	1976	1610	0	0	0	0	0	0	0	0	0	
2638	0	92	1277	29	1968	1611	0	0	0	0	0	0	0	0	0	
2639	0	111	1211	29	2001	1612	0	0	0	0	0	0	0	0	0	
2640	0	76	1220	29	2026	1613	0	0	0	0	0	0	0	0	0	
2641	0	122	1258	30	1981	1614	0	0	0	0	0	0	0	0	0	
2642	0	104	1250	30	1986	1615	0	0	0	0	0	0	0	0	0	
2643	0	76	1227	28	1984	1616	0	0	0	0	0	0	0	0	0	
2644	0	79	1221	29	1956	1617	0	0	0	0	0	0	0	0	0	
2645	0	100	1255	27	1991	1618	0	0	0	0	0	0	0	0	0	
2646	0	154	1244	29	2004	1619	0	0	0	0	0	0	0	0	0	
2647	0	126	1205	28	1992	1620	0	0	0	0	0	0	0	0	0	
2648	0	98	1231	31	1940	1621	0	0	0	0	0	0	0	0	0	
2649	0	131	1246	28	1984	1622	0	0	0	0	0	0	0	0	0	
2650	0	126	1202	30	1985	1623	0	0	0	0	0	0	0	0	0	
2651	0	91	1232	29	1979	1624	0	0	0	0	0	0	0	0	0	
2652	0	111	1246	29	1992	1625	0	0	0	0	0	0	0	0	0	
2653	0	59	1212	29	1956	1626	0	0	0	0	0	0	0	0	0	
2654	0	101	1250	29	1964	1627	0	0	0	0	0	0	0	0	0	
2655	0	95	1231	29	1977	1628	0	0	0	0	0	0	0	0	0	
2656	0	88	1246	29	2003	1629	0	0	0	0	0	0	0	0	0	
2657	0	124	1205	29	2001	1630	0	0	0	0	0	0	0	0	0	
2658	0	82	1269	30	1948	1631	0	0	0	0	0	0	0	0	0	
2659	0	98	1188	29	1975	1632	0	0	0	0	0	0	0	0	0	
2660	0	138	1252	28	1937	1633	0	0	0	0	0	0	0	0	0	
2661	0	119	1238	29	1969	1634	0	0	0	0	0	0	0	0	0	
2662	0	90	1208	28	1977	1635	0	0	0	0	0	0	0	0	0	
2663	0	159	1266	29	1979	1636	0	0	0	0	0	0	0	0	0	
2664	0	121	1263	28	1970	1637	0	0	0	0	0	0	0	0	0	
2665	0	111	1203	28	2026	1638	0	0	0	0	0	0	0	0	0	
2666	0	129	1266	29	2000	1639	0	0	0	0	0	0	0	0	0	
2667	0	103	1254	29	2000	1640	0	0	0	0	0	0	0	0	0	
2668	0	123	1231	30	1962	1641	0	0	0	0	0	0	0	0	0	
2669	0	147	1212	28	1967	1642	0	0	0	0	0	0	0	0	0	
2670	0	65	1224	29	2001	1643	0	0	0	0	0	0	0	0	0	
2671	0	60	1221	29	1952	1644	0	0	0	0	0	0	0	0	0	
2672	0	89	1262	29	1968	1645	0	0	0	0	0	0	0	0	0	
2673	0	127	1224	28	1981	1646	0	0	0	0	0	0	0	0	0	
2674	0	156	1251	28	2003	1647	0	0	0	0	0	0	0	0	0	
2675	0	139	1264	29	1967	1648	0	0	0	0	0	0	0	0	0	
2676	0	86	1240	30	1968	1649	0	0	0	0	0	0	0	0	0	
2677	0	120	1243	29	1939	1650	0	0	0	0	0	0	0	0	0	
2678	0	96	1242	28	2004	1651	0	0	0	0	0	0	0	0	0	
2679	0	150	1263	29	1993	1652	0	0	0	0	0	0	0	0	0	
2680	0	113	1224	29	2000	1653	0	0	0	0	0	0	0	0	0	
2681	0	96	1279	30	1989	1654	0	0	0	0	0	0	0	0	0	
2682	0	135	1265	28	2009	1655	0	0	0	0	0	0	0	0	0	
2683	0	89	1258	29	1967	1656	0	0	0	0	0	0	0	0	0	
2684	0	106	1254	29	1952	1657	0	0	0	0	0	0	0	0	0	
2685	0	121	1225	30	1965	1658	0	0	0	0	0	0	0	0	0	
2686	0	105	1226	30	1995	1659	0	0	0	0	0	0	0	0	0	
2687	0	99	1196	27	1965	1660	0	0	0	0	0	0	0	0	0	
2688	0	79	1212	28	1998	1661	0	0	0	0	0	0	0	0	0	
2689	0	83	1257	29	1981	1662	0	0	0	0	0	0	0	0	0	
2690	0	162	1267	30	2013	1663	0	0	0	0	0	0	0	0	0	
2691	0	141	1241	29	1987	1664	0	0	0	0	0	0	0	0	0	
2692	0	109	1241	30	1961	1665	0	0	0	0	0	0	0	0	0	
2693	0	124	1204	28	1955	1666	0	0	0	0	0	0	0	0	0	
2694	0	137	1242	29	1989	1667	0	0	0	0	0	0	0	0	0	
2695	0	102	1228	28	2025	1668	0	0	0	0	0	0	0	0	0	
2696	0	114	1254	28	1945	1669	0	0	0	0	0	0	0	0	0	
2697	0	111	1213	29	1964	1670	0	0	0	0	0	0	0	0	0	
2698	0	155	1218	30	1961	1671	0	0	0	0	0	0	0	0	0	
2699	0	180	1287	29	1990	1672	0	0	0	0	0	0	0	0	0	
2700	0	136	1219	29	1983	1673	0	0	0	0	0	0	0	0	0	
2701	0	86	1217	29	1995	1674	0	0	0	0	0	0	0	0	0	
2702	0	88	1251	29	1992	1675	0	0	0	0	0	0	0	0	0	
2703	0	143	1243	29	2016	1676	0	0	0	0	0	0	0	0	0	
2704	0	125	1226	29	1996	1677	0	0	0	0	0	0	0	0	0	
2705	0	136	1228	29	1981	1678	0	0	0	0	0	0	0	0	0	
2706	0	114	1230	29	2005	1679	0	0	0	0	0	0	0	0	0	
2707	0	75	1207	28	1954	1680	0	0	0	0	0	0	0	0	0	
2708	0	141	1218	30	1943	1681	0	0	0	0	0	0	0	0	0	
2709	0	122	1217	29	1967	1682	0	0	0	0	0	0	0	0	0	
2710	0	119	1234	28	1969	1683	0	0	0	0	0	0	0	0	0	
2711	0	111	1259	30	1980	1684	0	0	0	0	0	0	0	0	0	
2712	0	118	1235	28	1977	1685	0	0	0	0	0	0	0	0	0	
2713	0	131	1220	29	1964	1686	0	0	0	0	0	0	0	0	0	
2714	0	123	1218	29	1964	1687	0	0	0	0	0	0	0	0	0	
2715	0	70	1214	27	1955	1688	0	0	0	0	0	0	0	0	0	
2716	0	72	1204	29	1981	1689	0	0	0	0	0	0	0	0	0	
2717	0	76	1240	30	1956	1690	0	0	0	0	0	0	0	0	0	
2718	0	153	1233	30	1944	1691	0	0	0	0	0	0	0	0	0	
2719	0	128	1230	28	1959	1692	0	0	0	0	0	0	0	0	0	
2720	0	91	1243	29	1975	1693	0	0	0	0	0	0	0	0	0	
2721	0	95	1215	30	1934	1694	0	0	0	0	0	0	0	0	0	
2722	0	123	1245	30	2003	1695	0	0	0	0	0	0	0	0	0	
2723	0	144	1179	28	2017	1696	0	0	0	0	0	0	0	0	0	
2724	0	140	1265	29	2028	1697	0	0	0	0	0	0	0	0	0	
2725	0	129	1192	29	2021	1698	0	0	0	0	0	0	0	0	0	
2726	0	111	1240	29	2015	1699	0	0	0	0	0	0	0	0	0	
2727	0	138	1223	29	1990	1700	0	0	0	0	0	0	0	0	0	
2728	0	135	1243	28	1971	1701	0	0	0	0	0	0	0	0	0	
2729	0	132	1225	28	1949	1702	0	0	0	0	0	0	0	0	0	
2730	0	113	1194	28	1998	1703	0	0	0	0	0	0	0	0	0	
2731	0	122	1211	29	1948	1704	0	0	0	0	0	0	0	0	0	
2732	0	123	1259	30	1974	1705	0	0	0	0	0	0	0	0	0	
2733	0	115	1192	30	1982	1706	0	0	0	0	0	0	0	0	0	
2734	0	69	1255	28	1979	1707	0	0	0	0	0	0	0	0	0	
2735	0	118	1209	29	1966	1708	0	0	0	0	0	0	0	0	0	
2736	0	133	1252	29	2014	1709	0	0	0	0	0	0	0	0	0	
2737	0	125	1220	29	1928	1710	0	0	0	0	0	0	0	0	0	
2738	0	152	1268	28	1971	1711	0	0	0	0	0	0	0	0	0	
2739	0	112	1254	29	1947	1712	0	0	0	0	0	0	0	0	0	
2740	0	115	1218	29	2000	1713	0	0	0	0	0	0	0	0	0	
2741	0	143	1191	29	1985	1714	0	0	0	0	0	0	0	0	0	
2742	0	88	1252	29	1981	1715	0	0	0	0	0	0	0	0	0	
2743	0	132	1246	30	1964	1716	0	0	0	0	0	0	0	0	0	
2744	0	134	1210	28	1965	1717	0	0	0	0	0	0	0	0	0	
2745	0	150	1264	28	2012	1718	0	0	0	0	0	0	0	0	0	
2746	0	76	1205	30	2016	1719	0	0	0	0	0	0	0	0	0	
2747	0	111	1249	28	1948	1720	0	0	0	0	0	0	0	0	0	
2748	0	74	1217	29	1974	1721	0	0	0	0	0	0	0	0	0	
2749	0	144	1232	29	1940	1722	0	0	0	0	0	0	0	0	0	
2750	0	70	1252	29	1989	1723	0	0	0	0	0	0	0	0	0	
2751	0	110	1237	28	1949	1724	0	0	0	0	0	0	0	0	0	
2752	0	122	1249	29	2002	1725	0	0	0	0	0	0	0	0	0	
2753	0	115	1207	28	1999	1726	0	0	0	0	0	0	0	0	0	
2754	0	107	1262	28	1986	1727	0	0	0	0	0	0	0	0	0	
2755	0	140	1215	30	1986	1728	0	0	0	0	0	0	0	0	0	
2756	0	133	1234	29	2020	1729	0	0	0	0	0	0	0	0	0	
2757	0	88	1248	29	1952	1730	0	0	0	0	0	0	0	0	0	
2758	0	147	1206	29	2017	1731	0	0	0	0	0	0	0	0	0	
2759	0	163	1216	28	1972	1732	0	0	0	0	0	0	0	0	0	
2760	0	90	1228	29	2007	1733	0	0	0	0	0	0	0	0	0	
2761	0	139	1201	29	1980	1734	0	0	0	0	0	0	0	0	0	
2762	0	131	1228	27	1988	1735	0	0	0	0	0	0	0	0	0	
2763	0	99	1203	29	1972	1736	0	0	0	0	0	0	0	0	0	
2764	0	132	1246	29	1993	1737	0	0	0	0	0	0	0	0	0	
2765	0	152	1224	30	2017	1738	0	0	0	0	0	0	0	0	0	
2766	0	111	1220	30	1957	1739	0	0	0	0	0	0	0	0	0	
2767	0	83	1215	28	1990	1740	0	0	0	0	0	0	0	0	0	
2768	0	119	1226	28	1968	1741	0	0	0	0	0	0	0	0	0	
2769	0	160	1253	29	2029	1742	0	0	0	0	0	0	0	0	0	
2770	0	137	1254	29	2000	1743	0	0	0	0	0	0	0	0	0	
2771	0	103	1218	28	1978	1744	0	0	0	0	0	0	0	0	0	
2772	0	125	1244	30	1967	1745	0	0	0	0	0	0	0	0	0	
2773	0	114	1186	30	1985	1746	0	0	0	0	0	0	0	0	0	
2774	0	109	1197	28	1956	1747	0	0	0	0	0	0	0	0	0	
2775	0	66	1253	27	1955	1748	0	0	0	0	0	0	0	0	0	
2776	0	96	1266	28	1997	1749	0	0	0	0	0	0	0	0	0	
2777	0	130	1261	29	1960	1750	0	0	0	0	0	0	0	0	0	
2778	0	100	1246	29	1974	1751	0	0	0	0	0	0	0	0	0	
2779	0	113	1247	29	1990	1752	0	0	0	0	0	0	0	0	0	
2780	0	84	1232	29	1934	1753	0	0	0	0	0	0	0	0	0	
2781	0	93	1251	29	1966	1754	0	0	0	0	0	0	0	0	0	
2782	0	124	1245	29	2022	1755	0	0	0	0	0	0	0	0	0	
2783	0	105	1261	28	1974	1756	0	0	0	0	0	0	0	0	0	
2784	0	126	1279	29	2002	1757	0	0	0	0	0	0	0	0	0	
2785	0	106	1226	29	1956	1758	0	0	0	0	0	0	0	0	0	
2786	0	122	1207	28	2008	1759	0	0	0	0	0	0	0	0	0	
2787	0	115	1254	30	1985	1760	0	0	0	0	0	0	0	0	0	
2788	0	129	1236	29	1987	1761	0	0	0	0	0	0	0	0	0	
2789	0	97	1243	29	1962	1762	0	0	0	0	0	0	0	0	0	
2790	0	99	1273	27	1952	1763	0	0	0	0	0	0	0	0	0	
2791	0	86	1234	28	2002	1764	0	0	0	0	0	0	0	0	0	
2792	0	99	1209	30	1987	1765	0	0	0	0	0	0	0	0	0	
2793	0	135	1236	28	1989	1766	0	0	0	0	0	0	0	0	0	
2794	0	121	1191	30	1959	1767	0	0	0	0	0	0	0	0	0	
2795	0	75	1243	28	1976	1768	0	0	0	0	0	0	0	0	0	
2796	0	132	1249	31	1950	1769	0	0	0	0	0	0	0	0	0	
2797	0	110	1217	30	1981	1770	0	0	0	0	0	0	0	0	0	
2798	0	94	1266	30	1990	1771	0	0	0	0	0	0	0	0	0	
2799	0	102	1252	29	1996	1772	0	0	0	0	0	0	0	0	0	
2800	0	103	1234	29	1986	1773	0	0	0	0	0	0	0	0	0	
2801	0	83	1256	28	1944	1774	0	0	0	0	0	0	0	0	0	
2802	0	112	1240	30	1972	1775	0	0	0	0	0	0	0	0	0	
2803	0	100	1211	29	1973	1776	0	0	0	0	0	0	0	0	0	
2804	0	128	1266	28	2007	1777	0	0	0	0	0	0	0	0	0	
2805	0	110	1217	28	1991	1778	0	0	0	0	0	0	0	0	0	
2806	0	135	1184	30	1981	1779	0	0	0	0	0	0	0	0	0	
2807	0	72	1221	28	2041	1780	0	0	0	0	0	0	0	0	0	
2808	0	133	1239	29	1980	1781	0	0	0	0	0	0	0	0	0	
2809	0	112	1290	30	1979	1782	0	0	0	0	0	0	0	0	0	
2810	0	155	1214	28	1967	1783	0	0	0	0	0	0	0	0	0	
2811	0	97	1247	28	1984	1784	0	0	0	0	0	0	0	0	0	
2812	0	158	1208	30	2004	1785	0	0	0	0	0	0	0	0	0	
2813	0	142	1217	29	1992	1786	0	0	0	0	0	0	0	0	0	
2814	0	118	1259	31	1997	1787	0	0	0	0	0	0	0	0	0	
2815	0	137	1216	29	1985	1788	0	0	0	0	0	0	0	0	0	
2816	0	93	1288	29	1981	1789	0	0	0	0	0	0	0	0	0	
2817	0	140	1239	29	1987	1790	0	0	0	0	0	0	0	0	0	
2818	0	114	1181	29	1974	1791	0	0	0	0	0	0	0	0	0	
2819	0	125	1203	28	1949	1792	0	0	0	0	0	0	0	0	0	
2820	0	139	1269	28	1992	1793	0	0	0	0	0	0	0	0	0	
2821	0	131	1243	28	1950	1794	0	0	0	0	0	0	0	0	0	
2822	0	131	1180	29	2008	1795	0	0	0	0	0	0	0	0	0	
2823	0	112	1248	30	1955	1796	0	0	0	0	0	0	0	0	0	
2824	0	118	1221	28	1971	1797	0	0	0	0	0	0	0	0	0	
2825	0	164	1208	28	2014	1798	0	0	0	0	0	0	0	0	0	
2826	0	133	1251	28	1967	1799	0	0	0	0	0	0	0	0	0	
2827	0	89	1224	29	1978	1800	0	0	0	0	0	0	0	0	0	
2828	0	151	1222	29	1998	1801	0	0	0	0	0	0	0	0	0	
2829	0	145	1231	29	2012	1802	0	0	0	0	0	0	0	0	0	
2830	0	113	1188	30	1933	1803	0	0	0	0	0	0	0	0	0	
2831	0	127	1262	28	1985	1804	0	0	0	0	0	0	0	0	0	
2832	0	140	1238	29	1974	1805	0	0	0	0	0	0	0	0	0	
2833	0	101	1235	29	1994	1806	0	0	0	0	0	0	0	0	0	
2834	0	164	1216	30	1972	1807	0	0	0	0	0	0	0	0	0	
2835	0	111	1255	29	1989	1808	0	0	0	0	0	0	0	0	0	
2836	0	86	1228	28	1963	1809	0	0	0	0	0	0	0	0	0	
2837	0	77	1241	30	1944	1810	0	0	0	0	0	0	0	0	0	
2838	0	101	1249	29	1968	1811	0	0	0	0	0	0	0	0	0	
2839	0	72	1224	30	1967	1812	0	0	0	0	0	0	0	0	0	
2840	0	82	1221	28	1968	1813	0	0	0	0	0	0	0	0	0	
2841	0	118	1259	30	1974	1814	0	0	0	0	0	0	0	0	0	
2842	0	111	1238	29	1970	1815	0	0	0	0	0	0	0	0	0	
2843	0	152	1238	29	1946	1816	0	0	0	0	0	0	0	0	0	
2844	0	109	1253	30	1982	1817	0	0	0	0	0	0	0	0	0	
2845	0	92	1235	29	2000	1818	0	0	0	0	0	0	0	0	0	
2846	0	142	1290	30	2010	1819	0	0	0	0	0	0	0	0	0	
2847	0	125	1251	31	1962	1820	0	0	0	0	0	0	0	0	0	
2848	0	101	1220	29	1984	1821	0	0	0	0	0	0	0	0	0	
2849	0	155	1271	28	1997	1822	0	0	0	0	0	0	0	0	0	
2850	0	96	1214	28	1997	1823	0	0	0	0	0	0	0	0	0	
2851	0	84	1225	28	1988	1824	0	0	0	0	0	0	0	0	0	
2852	0	132	1261	30	1974	1825	0	0	0	0	0	0	0	0	0	
2853	0	81	1225	28	1965	1826	0	0	0	0	0	0	0	0	0	
2854	0	141	1219	30	1974	1827	0	0	0	0	0	0	0	0	0	
2855	0	143	1194	28	1988	1828	0	0	0	0	0	0	0	0	0	
2856	0	93	1219	30	1983	1829	0	0	0	0	0	0	0	0	0	
2857	0	111	1216	29	1968	1830	0	0	0	0	0	0	0	0	0	
2858	0	103	1216	30	1945	1831	0	0	0	0	0	0	0	0	0	
2859	0	110	1244	29	2000	1832	0	0	0	0	0	0	0	0	0	
2860	0	150	1207	30	1968	1833	0	0	0	0	0	0	0	0	0	
2861	0	104	1218	29	1999	1834	0	0	0	0	0	0	0	0	0	
2862	0	143	1251	29	1976	1835	0	0	0	0	0	0	0	0	0	
2863	0	129	1252	30	1977	1836	0	0	0	0	0	0	0	0	0	
2864	0	121	1264	29	1995	1837	0	0	0	0	0	0	0	0	0	
2865	0	135	1208	29	2003	1838	0	0	0	0	0	0	0	0	0	
2866	0	124	1175	31	1984	1839	0	0	0	0	0	0	0	0	0	
2867	0	95	1215	29	1955	1840	0	0	0	0	0	0	0	0	0	
2868	0	81	1229	29	1988	1841	0	0	0	0	0	0	0	0	0	
2869	0	78	1264	27	1972	1842	0	0	0	0	0	0	0	0	0	
2870	0	168	1228	30	1958	1843	0	0	0	0	0	0	0	0	0	
2871	0	120	1280	28	1965	1844	0	0	0	0	0	0	0	0	0	
2872	0	93	1220	29	2009	1845	0	0	0	0	0	0	0	0	0	
2873	0	133	1209	28	1982	1846	0	0	0	0	0	0	0	0	0	
2874	0	149	1239	29	1960	1847	0	0	0	0	0	0	0	0	0	
2875	0	129	1243	27	1935	1848	0	0	0	0	0	0	0	0	0	
2876	0	112	1231	29	1984	1849	0	0	0	0	0	0	0	0	0	
2877	0	109	1237	30	2007	1850	0	0	0	0	0	0	0	0	0	
2878	0	137	1288	29	1951	1851	0	0	0	0	0	0	0	0	0	
2879	0	116	1236	29	1989	1852	0	0	0	0	0	0	0	0	0	
2880	0	98	1188	29	1957	1853	0	0	0	0	0	0	0	0	0	
2881	0	148	1259	29	1998	1854	0	0	0	0	0	0	0	0	0	
2882	0	80	1271	29	1957	1855	0	0	0	0	0	0	0	0	0	
2883	0	122	1254	29	1977	1856	0	0	0	0	0	0	0	0	0	
2884	0	116	1201	29	1970	1857	0	0	0	0	0	0	0	0	0	
2885	0	101	1223	27	1976	1858	0	0	0	0	0	0	0	0	0	
2886	0	107	1237	29	1983	1859	0	0	0	0	0	0	0	0	0	
2887	0	139	1182	30	1948	1860	0	0	0	0	0	0	0	0	0	
2888	0	149	1213	28	1925	1861	0	0	0	0	0	0	0	0	0	
2889	0	90	1259	29	2008	1862	0	0	0	0	0	0	0	0	0	
2890	0	100	1276	30	1990	1863	0	0	0	0	0	0	0	0	0	
2891	0	108	1200	29	2002	1864	0	0	0	0	0	0	0	0	0	
2892	0	144	1282	28	1988	1865	0	0	0	0	0	0	0	0	0	
2893	0	143	1265	28	1991	1866	0	0	0	0	0	0	0	0	0	
2894	0	118	1218	27	1985	1867	0	0	0	0	0	0	0	0	0	
2895	0	100	1220	29	1994	1868	0	0	0	0	0	0	0	0	0	
2896	0	108	1250	28	1968	1869	0	0	0	0	0	0	0	0	0	
2897	0	164	1224	29	1965	1870	0	0	0	0	0	0	0	0	0	
2898	0	90	1277	29	1950	1871	0	0	0	0	0	0	0	0	0	
2899	0	119	1203	28	1968	1872	0	0	0	0	0	0	0	0	0	
2900	0	132	1247	28	1978	1873	0	0	0	0	0	0	0	0	0	
2901	0	125	1242	29	1978	1874	0	0	0	0	0	0	0	0	0	
2902	0	142	1266	28	1988	1875	0	0	0	0	0	0	0	0	0	
2903	0	156	1241	29	1980	1876	0	0	0	0	0	0	0	0	0	
2904	0	110	1220	29	2026	1877	0	0	0	0	0	0	0	0	0	
2905	0	115	1290	28	1961	1878	0	0	0	0	0	0	0	0	0	
2906	0	131	1189	28	1982	1879	0	0	0	0	0	0	0	0	0	
2907	0	84	1220	29	1967	1880	0	0	0	0	0	0	0	0	0	
2908	0	93	1225	29	2003	1881	0	0	0	0	0	0	0	0	0	
2909	0	124	1235	29	1979	1882	0	0	0	0	0	0	0	0	0	
2910	0	109	1226	29	1978	1883	0	0	0	0	0	0	0	0	0	
2911	0	150	1255	29	1994	1884	0	0	0	0	0	0	0	0	0	
2912	0	113	1184	28	1976	1885	0	0	0	0	0	0	0	0	0	
2913	0	123	1235	29	1975	1886	0	0	0	0	0	0	0	0	0	
2914	0	92	1254	29	1994	1887	0	0	0	0	0	0	0	0	0	
2915	0	70	1228	28	1952	1888	0	0	0	0	0	0	0	0	0	
2916	0	97	1230	29	1977	1889	0	0	0	0	0	0	0	0	0	
2917	0	103	1265	28	1956	1890	0	0	0	0	0	0	0	0	0	
2918	0	132	1189	30	1984	1891	0	0	0	0	0	0	0	0	0	
2919	0	136	1230	27	1969	1892	0	0	0	0	0	0	0	0	0	
2920	0	98	1235	29	1967	1893	0	0	0	0	0	0	0	0	0	
2921	0	136	1243	28	1990	1894	0	0	0	0	0	0	0	0	0	
2922	0	68	1269	28	1985	1895	0	0	0	0	0	0	0	0	0	
2923	0	164	1225	30	1992	1896	0	0	0	0	0	0	0	0	0	
2924	0	103	1251	29	1972	1897	0	0	0	0	0	0	0	0	0	
2925	0	153	1253	29	1956	1898	0	0	0	0	0	0	0	0	0	
2926	0	117	1224	29	1953	1899	0	0	0	0	0	0	0	0	0	
2927	0	110	1225	30	2013	1900	0	0	0	0	0	0	0	0	0	
2928	0	130	1192	30	1984	1901	0	0	0	0	0	0	0	0	0	
2929	0	89	1220	29	1963	1902	0	0	0	0	0	0	0	0	0	
2930	0	116	1242	29	1960	1903	0	0	0	0	0	0	0	0	0	
2931	0	122	1228	28	2000	1904	0	0	0	0	0	0	0	0	0	
2932	0	119	1202	29	1951	1905	0	0	0	0	0	0	0	0	0	
2933	0	134	1264	29	1936	1906	0	0	0	0	0	0	0	0	0	
2934	0	122	1235	28	1939	1907	0	0	0	0	0	0	0	0	0	
2935	0	104	1227	30	1981	1908	0	0	0	0	0	0	0	0	0	
2936	0	94	1301	29	1976	1909	0	0	0	0	0	0	0	0	0	
2937	0	106	1252	28	1956	1910	0	0	0	0	0	0	0	0	0	
2938	0	85	1209	30	2037	1911	0	0	0	0	0	0	0	0	0	
2939	0	138	1201	29	1960	1912	0	0	0	0	0	0	0	0	0	
2940	0	115	1225	29	1957	1913	0	0	0	0	0	0	0	0	0	
2941	0	107	1226	30	1985	1914	0	0	0	0	0	0	0	0	0	
2942	0	151	1289	29	1998	1915	0	0	0	0	0	0	0	0	0	
2943	0	145	1184	29	1975	1916	0	0	0	0	0	0	0	0	0	
2944	0	141	1223	30	1982	1917	0	0	0	0	0	0	0	0	0	
2945	0	105	1197	29	1993	1918	0	0	0	0	0	0	0	0	0	
2946	0	144	1281	30	1991	1919	0	0	0	0	0	0	0	0	0	
2947	0	132	1265	30	2001	1920	0	0	0	0	0	0	0	0	0	
2948	0	151	1252	28	1977	1921	0	0	0	0	0	0	0	0	0	
2949	0	133	1228	29	1977	1922	0	0	0	0	0	0	0	0	0	
2950	0	87	1212	29	1960	1923	0	0	0	0	0	0	0	0	0	
2951	0	115	1209	29	1965	1924	0	0	0	0	0	0	0	0	0	
2952	0	108	1209	29	1974	1925	0	0	0	0	0	0	0	0	0	
2953	0	111	1254	28	1959	1926	0	0	0	0	0	0	0	0	0	
2954	0	115	1290	29	1966	1927	0	0	0	0	0	0	0	0	0	
2955	0	64	1235	29	1972	1928	0	0	0	0	0	0	0	0	0	
2956	0	74	1188	29	1984	1929	0	0	0	0	0	0	0	0	0	
2957	0	158	1249	27	1986	1930	0	0	0	0	0	0	0	0	0	
2958	0	125	1202	27	2005	1931	0	0	0	0	0	0	0	0	0	
2959	0	122	1249	28	1994	1932	0	0	0	0	0	0	0	0	0	
2960	0	108	1211	28	1962	1933	0	0	0	0	0	0	0	0	0	
2961	0	86	1302	29	1978	1934	0	0	0	0	0	0	0	0	0	
2962	0	100	1244	29	1977	1935	0	0	0	0	0	0	0	0	0	
2963	0	84	1239	29	2004	1936	0	0	0	0	0	0	0	0	0	
2964	0	167	1249	29	1956	1937	0	0	0	0	0	0	0	0	0	
2965	0	108	1225	28	1976	1938	0	0	0	0	0	0	0	0	0	
2966	0	119	1233	28	1981	1939	0	0	0	0	0	0	0	0	0	
2967	0	111	1194	29	1960	1940	0	0	0	0	0	0	0	0	0	
2968	0	132	1243	29	2031	1941	0	0	0	0	0	0	0	0	0	
2969	0	77	1235	29	1971	1942	0	0	0	0	0	0	0	0	0	
2970	0	145	1232	28	1982	1943	0	0	0	0	0	0	0	0	0	
2971	0	129	1217	29	1989	1944	0	0	0	0	0	0	0	0	0	
2972	0	91	1214	30	2016	1945	0	0	0	0	0	0	0	0	0	
2973	0	107	1206	30	1977	1946	0	0	0	0	0	0	0	0	0	
2974	0	114	1201	29	1984	1947	0	0	0	0	0	0	0	0	0	
2975	0	185	1227	29	1945	1948	0	0	0	0	0	0	0	0	0	
2976	0	142	1251	29	1960	1949	0	0	0	0	0	0	0	0	0	
2977	0	113	1246	29	2020	1950	0	0	0	0	0	0	0	0	0	
2978	0	119	1236	29	1988	1951	0	0	0	0	0	0	0	0	0	
2979	0	104	1251	29	1960	1952	0	0	0	0	0	0	0	0	0	
2980	0	129	1218	29	1966	1953	0	0	0	0	0	0	0	0	0	
2981	0	80	1249	29	1969	1954	0	0	0	0	0	0	0	0	0	
2982	0	99	1265	28	1988	1955	0	0	0	0	0	0	0	0	0	
2983	0	134	1240	30	1974	1956	0	0	0	0	0	0	0	0	0	
2984	0	115	1232	28	1999	1957	0	0	0	0	0	0	0	0	0	
2985	0	124	1265	28	1973	1958	0	0	0	0	0	0	0	0	0	
2986	0	117	1270	28	1953	1959	0	0	0	0	0	0	0	0	0	
2987	0	103	1245	29	1988	1960	0	0	0	0	0	0	0	0	0	
2988	0	120	1260	29	2028	1961	0	0	0	0	0	0	0	0	0	
2989	0	116	1252	29	1988	1962	0	0	0	0	0	0	0	0	0	
2990	0	126	1236	29	1963	1963	0	0	0	0	0	0	0	0	0	
2991	0	85	1250	29	1999	1964	0	0	0	0	0	0	0	0	0	
2992	0	111	1223	29	1953	1965	0	0	0	0	0	0	0	0	0	
2993	0	99	1244	28	1954	1966	0	0	0	0	0	0	0	0	0	
2994	0	79	1215	29	1959	1967	0	0	0	0	0	0	0	0	0	
2995	0	84	1234	29	2026	1968	0	0	0	0	0	0	0	0	0	
2996	0	122	1205	29	1980	1969	0	0	0	0	0	0	0	0	0	
2997	0	86	1224	30	1983	1970	0	0	0	0	0	0	0	0	0	
2998	0	108	1232	30	2005	1971	0	0	0	0	0	0	0	0	0	
2999	0	136	1259	29	2004	1972	0	0	0	0	0	0	0	0	0	
3000	0	98	1242	29	1968	1973	0	0	0	0	0	0	0	0	0	
3001	0	86	1206	29	1970	1974	0	0	0	0	0	0	0	0	0	
3002	0	109	1264	29	2005	1975	0	0	0	0	0	0	0	0	0	
3003	0	131	1207	28	1987	1976	0	0	0	0	0	0	0	0	0	
3004	0	121	1214	27	1994	1977	0	0	0	0	0	0	0	0	0	
3005	0	133	1206	28	1917	1978	0	0	0	0	0	0	0	0	0	
3006	0	103	1263	29	1979	1979	0	0	0	0	0	0	0	0	0	
3007	0	98	1216	28	1969	1980	0	0	0	0	0	0	0	0	0	
3008	0	127	1185	29	1975	1981	0	0	0	0	0	0	0	0	0	
3009	0	101	1269	29	2018	1982	0	0	0	0	0	0	0	0	0	
3010	0	115	1169	29	1983	1983	0	0	0	0	0	0	0	0	0	
3011	0	90	1244	29	1955	1984	0	0	0	0	0	0	0	0	0	
3012	0	76	1238	30	1965	1985	0	0	0	0	0	0	0	0	0	
3013	0	149	1209	27	1978	1986	0	0	0	0	0	0	0	0	0	
3014	0	138	1260	28	1990	1987	0	0	0	0	0	0	0	0	0	
3015	0	162	1227	29	1988	1988	0	0	0	0	0	0	0	0	0	
3016	0	123	1218	27	1921	1989	0	0	0	0	0	0	0	0	0	
3017	0	125	1238	29	1984	1990	0	0	0	0	0	0	0	0	0	
3018	0	146	1270	29	2012	1991	0	0	0	0	0	0	0	0	0	
3019	0	113	1211	30	2014	1992	0	0	0	0	0	0	0	0	0	
3020	0	85	1274	28	2016	1993	0	0	0	0	0	0	0	0	0	
3021	0	105	1237	29	1924	1994	0	0	0	0	0	0	0	0	0	
3022	0	111	1219	28	2000	1995	0	0	0	0	0	0	0	0	0	
3023	0	142	1237	30	1950	1996	0	0	0	0	0	0	0	0	0	
3024	0	107	1182	28	1968	1997	0	0	0	0	0	0	0	0	0	
3025	0	129	1202	28	1985	1998	0	0	0	0	0	0	0	0	0	
3026	0	115	1206	29	1963	1999	0	0	0	0	0	0	0	0	0	
3027	0	99	1245	29	1989	2000	0	0	0	0	0	0	0	0	0	
3028	0	101	1235	29	1987	2001	0	0	0	0	0	0	0	0	0	
3029	0	124	1217	28	1975	2002	0	0	0	0	0	0	0	0	0	
3030	0	87	1223	29	1980	2003	0	0	0	0	0	0	0	0	0	
3031	0	123	1211	29	2004	2004	0	0	0	0	0	0	0	0	0	
3032	0	115	1220	29	1996	2005	0	0	0	0	0	0	0	0	0	
3033	0	110	1212	30	1988	2006	0	0	0	0	0	0	0	0	0	
3034	0	101	1239	29	1964	2007	0	0	0	0	0	0	0	0	0	
3035	0	148	1230	29	2019	2008	0	0	0	0	0	0	0	0	0	
3036	0	118	1221	29	1971	2009	0	0	0	0	0	0	0	0	0	
3037	0	125	1230	29	1937	2010	0	0	0	0	0	0	0	0	0	
3038	0	123	1185	28	1977	2011	0	0	0	0	0	0	0	0	0	
3039	0	144	1262	30	1964	2012	0	0	0	0	0	0	0	0	0	
3040	0	118	1177	29	1943	2013	0	0	0	0	0	0	0	0	0	
3041	0	84	1251	30	2007	2014	0	0	0	0	0	0	0	0	0	
3042	0	101	1204	29	1963	2015	0	0	0	0	0	0	0	0	0	
3043	0	112	1224	29	1995	2016	0	0	0	0	0	0	0	0	0	
3044	0	114	1186	29	1970	2017	0	0	0	0	0	0	0	0	0	
3045	0	84	1218	30	1973	2018	0	0	0	0	0	0	0	0	0	
3046	0	92	1215	29	1992	2019	0	0	0	0	0	0	0	0	0	
3047	0	96	1179	29	2018	2020	0	0	0	0	0	0	0	0	0	
3048	0	97	1213	30	1962	2021	0	0	0	0	0	0	0	0	0	
3049	0	97	1248	31	1984	2022	0	0	0	0	0	0	0	0	0	
3050	0	140	1270	29	1943	2023	0	0	0	0	0	0	0	0	0	
3051	0	115	1218	28	2006	2024	0	0	0	0	0	0	0	0	0	
3052	0	156	1270	28	2007	2025	0	0	0	0	0	0	0	0	0	
3053	0	77	1214	29	1932	2026	0	0	0	0	0	0	0	0	0	
3054	0	116	1231	29	1977	2027	0	0	0	0	0	0	0	0	0	
3055	0	148	1250	28	1960	2028	0	0	0	0	0	0	0	0	0	
3056	0	150	1230	29	1987	2029	0	0	0	0	0	0	0	0	0	
3057	0	150	1224	28	1995	2030	0	0	0	0	0	0	0	0	0	
3058	0	126	1207	28	1969	2031	0	0	0	0	0	0	0	0	0	
3059	0	150	1236	29	2003	2032	0	0	0	0	0	0	0	0	0	
3060	0	80	1235	29	1974	2033	0	0	0	0	0	0	0	0	0	
3061	0	136	1207	29	1985	2034	0	0	0	0	0	0	0	0	0	
3062	0	104	1215	30	1952	2035	0	0	0	0	0	0	0	0	0	
3063	0	142	1251	29	1968	2036	0	0	0	0	0	0	0	0	0	
3064	0	103	1276	29	1969	2037	0	0	0	0	0	0	0	0	0	
3065	0	136	1205	29	1954	2038	0	0	0	0	0	0	0	0	0	
3066	0	125	1229	29	2020	2039	0	0	0	0	0	0	0	0	0	
3067	0	106	1263	30	2000	2040	0	0	0	0	0	0	0	0	0	
3068	0	122	1234	28	2004	2041	0	0	0	0	0	0	0	0	0	
3069	0	85	1210	29	1953	2042	0	0	0	0	0	0	0	0	0	
3070	0	129	1219	29	2023	2043	0	0	0	0	0	0	0	0	0	
3071	0	112	1251	30	2007	2044	0	0	0	0	0	0	0	0	0	
3072	0	114	1252	30	1973	2045	0	0	0	0	0	0	0	0	0	
3073	0	103	1185	29	1993	2046	0	0	0	0	0	0	0	0	0	
3074	0	105	1226	29	1999	2047	0	0	0	0	0	0	0	0	0	
3075	0	116	1234	29	1981	2048	0	0	0	0	0	0	0	0	0	
3076	0	136	1183	27	1990	2049	0	0	0	0	0	0	0	0	0	
3077	0	140	1242	29	2003	2050	0	0	0	0	0	0	0	0	0	
3078	0	116	1257	28	2012	2051	0	0	0	0	0	0	0	0	0	
3079	0	106	1260	29	1957	2052	0	0	0	0	0	0	0	0	0	
3080	0	143	1229	28	1967	2053	0	0	0	0	0	0	0	0	0	
3081	0	133	1208	28	1979	2054	0	0	0	0	0	0	0	0	0	
3082	0	79	1237	28	1991	2055	0	0	0	0	0	0	0	0	0	
3083	0	122	1209	29	1996	2056	0	0	0	0	0	0	0	0	0	
3084	0	135	1290	28	1990	2057	0	0	0	0	0	0	0	0	0	
3085	0	83	1252	30	1973	2058	0	0	0	0	0	0	0	0	0	
3086	0	122	1176	30	1982	2059	0	0	0	0	0	0	0	0	0	
3087	0	133	1168	27	1992	2060	0	0	0	0	0	0	0	0	0	
3088	0	117	1233	29	1972	2061	0	0	0	0	0	0	0	0	0	
3089	0	127	1200	31	1953	2062	0	0	0	0	0	0	0	0	0	
3090	0	101	1217	29	1969	2063	0	0	0	0	0	0	0	0	0	
3091	0	114	1183	30	1979	2064	0	0	0	0	0	0	0	0	0	
3092	0	129	1230	30	2006	2065	0	0	0	0	0	0	0	0	0	
3093	0	103	1189	29	1960	2066	0	0	0	0	0	0	0	0	0	
3094	0	100	1240	29	2001	2067	0	0	0	0	0	0	0	0	0	
3095	0	80	1219	29	1957	2068	0	0	0	0	0	0	0	0	0	
3096	0	112	1241	29	2018	2069	0	0	0	0	0	0	0	0	0	
3097	0	106	1228	28	2009	2070	0	0	0	0	0	0	0	0	0	
3098	0	128	1239	28	1954	2071	0	0	0	0	0	0	0	0	0	
3099	0	125	1245	29	1990	2072	0	0	0	0	0	0	0	0	0	
3100	0	77	1217	28	2003	2073	0	0	0	0	0	0	0	0	0	
3101	0	104	1230	29	1982	2074	0	0	0	0	0	0	0	0	0	
3102	0	126	1236	28	1949	2075	0	0	0	0	0	0	0	0	0	
3103	0	99	1227	28	2020	2076	0	0	0	0	0	0	0	0	0	
3104	0	115	1206	29	1982	2077	0	0	0	0	0	0	0	0	0	
3105	0	111	1235	29	1971	2078	0	0	0	0	0	0	0	0	0	
3106	0	90	1221	29	1987	2079	0	0	0	0	0	0	0	0	0	
3107	0	111	1206	29	1952	2080	0	0	0	0	0	0	0	0	0	
3108	0	136	1193	31	1963	2081	0	0	0	0	0	0	0	0	0	
3109	0	125	1207	30	1982	2082	0	0	0	0	0	0	0	0	0	
3110	0	131	1192	29	2014	2083	0	0	0	0	0	0	0	0	0	
3111	0	55	1199	29	1988	2084	0	0	0	0	0	0	0	0	0	
3112	0	101	1252	29	1989	2085	0	0	0	0	0	0	0	0	0	
3113	0	107	1219	30	1966	2086	0	0	0	0	0	0	0	0	0	
3114	0	78	1262	28	1972	2087	0	0	0	0	0	0	0	0	0	
3115	0	101	1256	30	1992	2088	0	0	0	0	0	0	0	0	0	
3116	0	89	1216	30	1952	2089	0	0	0	0	0	0	0	0	0	
3117	0	128	1232	29	1988	2090	0	0	0	0	0	0	0	0	0	
3118	0	92	1241	28	2006	2091	0	0	0	0	0	0	0	0	0	
3119	0	123	1218	29	1994	2092	0	0	0	0	0	0	0	0	0	
3120	0	96	1248	30	1998	2093	0	0	0	0	0	0	0	0	0	
3121	0	164	1249	28	1964	2094	0	0	0	0	0	0	0	0	0	
3122	0	128	1247	29	2013	2095	0	0	0	0	0	0	0	0	0	
3123	0	107	1231	30	2008	2096	0	0	0	0	0	0	0	0	0	
3124	0	107	1240	29	1977	2097	0	0	0	0	0	0	0	0	0	
3125	0	91	1220	29	1920	2098	0	0	0	0	0	0	0	0	0	
3126	0	102	1213	28	2022	2099	0	0	0	0	0	0	0	0	0	
